,0
0,-134
1,-137
2,-122
3,-101
4,-96
5,-89
6,-75
7,-66
8,-63
9,-68
10,-92
11,-127
12,-158
13,-163
14,-153
15,-146
16,-141
17,-125
18,-106
19,-42
20,212
21,645
22,874
23,390
24,-555
25,-834
26,-366
27,-160
28,-231
29,-141
30,-94
31,-139
32,-115
33,-87
34,-94
35,-75
36,-44
37,-40
38,-28
39,-11
40,-14
41,-26
42,-21
43,-4
44,-7
45,-11
46,4
47,30
48,59
49,92
50,111
51,111
52,108
53,120
54,125
55,101
56,56
57,-14
58,-96
59,-148
60,-170
61,-212
62,-260
63,-278
64,-276
65,-262
66,-248
67,-231
68,-210
69,-203
70,-210
71,-198
72,-170
73,-153
74,-141
75,-137
76,-165
77,-196
78,-189
79,-170
80,-165
81,-167
82,-200
83,-262
84,-267
85,-226
86,-215
87,-212
88,-205
89,-212
90,-210
91,-177
92,-160
93,-177
94,-193
95,-196
96,-182
97,-156
98,-127
99,-113
100,-120
101,-130
102,-132
103,-118
104,-96
105,-94
106,-96
107,-85
108,-78
109,-63
110,42
111,314
112,718
113,959
114,517
115,-418
116,-697
117,-219
118,-30
119,-134
120,-61
121,0
122,-37
123,-18
124,11
125,-2
126,-16
127,-16
128,-2
129,14
130,18
131,33
132,52
133,61
134,68
135,87
136,106
137,125
138,146
139,148
140,144
141,156
142,139
143,94
144,89
145,96
146,59
147,7
148,-40
149,-94
150,-137
151,-167
152,-198
153,-224
154,-234
155,-226
156,-212
157,-212
158,-255
159,-314
160,-323
161,-302
162,-302
163,-302
164,-302
165,-316
166,-321
167,-302
168,-288
169,-281
170,-271
171,-274
172,-281
173,-269
174,-250
175,-243
176,-234
177,-229
178,-234
179,-231
180,-215
181,-200
182,-182
183,-170
184,-170
185,-158
186,-139
187,-132
188,-139
189,-151
190,-174
191,-184
192,-160
193,-137
194,-130
195,-125
196,-101
197,18
198,335
199,754
200,879
201,271
202,-595
203,-633
204,-141
205,-70
206,-167
207,-78
208,-68
209,-153
210,-139
211,-85
212,-82
213,-80
214,-59
215,-54
216,-52
217,-33
218,-7
219,7
220,18
221,30
222,33
223,47
224,80
225,106
226,118
227,137
228,132
229,101
230,104
231,120
232,99
233,68
234,33
235,-37
236,-96
237,-127
238,-160
239,-184
240,-182
241,-189
242,-196
243,-182
244,-170
245,-158
246,-139
247,-130
248,-130
249,-120
250,-113
251,-108
252,-99
253,-96
254,-111
255,-118
256,-113
257,-122
258,-139
259,-137
260,-137
261,-148
262,-148
263,-141
264,-137
265,-127
266,-120
267,-118
268,-106
269,-87
270,-82
271,-87
272,-99
273,-120
274,-153
275,-191
276,-182
277,-151
278,-148
279,-165
280,-146
281,4
282,342
283,728
284,744
285,14
286,-791
287,-661
288,-191
289,-212
290,-288
291,-179
292,-177
293,-210
294,-156
295,-122
296,-125
297,-125
298,-165
299,-200
300,-165
301,-118
302,-108
303,-94
304,-75
305,-63
306,-42
307,-4
308,30
309,49
310,63
311,85
312,106
313,132
314,151
315,146
316,122
317,87
318,28
319,-40
320,-85
321,-122
322,-160
323,-184
324,-191
325,-186
326,-177
327,-172
328,-165
329,-151
330,-141
331,-130
332,-118
333,-113
334,-111
335,-104
336,-99
337,-101
338,-94
339,-99
340,-141
341,-170
342,-153
343,-148
344,-160
345,-156
346,-151
347,-137
348,-113
349,-106
350,-113
351,-106
352,-104
353,-106
354,-108
355,-118
356,-115
357,-92
358,-87
359,-87
360,-75
361,-68
362,-56
363,66
364,375
365,782
366,948
367,382
368,-560
369,-732
370,-250
371,-113
372,-196
373,-108
374,-104
375,-203
376,-179
377,-118
378,-120
379,-115
380,-92
381,-96
382,-113
383,-99
384,-68
385,-44
386,-28
387,-18
388,-21
389,-18
390,-7
391,7
392,30
393,44
394,35
395,40
396,73
397,85
398,73
399,47
400,-11
401,-87
402,-134
403,-163
404,-193
405,-234
406,-288
407,-314
408,-288
409,-264
410,-255
411,-243
412,-241
413,-245
414,-238
415,-231
416,-222
417,-212
418,-212
419,-217
420,-203
421,-182
422,-172
423,-170
424,-167
425,-174
426,-179
427,-165
428,-144
429,-134
430,-139
431,-137
432,-122
433,-111
434,-89
435,-73
436,-85
437,-104
438,-111
439,-99
440,-82
441,-80
442,-78
443,-89
444,-137
445,-165
446,-85
447,153
448,562
449,907
450,609
451,-380
452,-893
453,-451
454,-132
455,-226
456,-174
457,-80
458,-106
459,-89
460,-49
461,-63
462,-73
463,-63
464,-54
465,-47
466,-40
467,-23
468,-2
469,14
470,18
471,4
472,-21
473,-14
474,23
475,42
476,49
477,61
478,54
479,47
480,70
481,75
482,37
483,-7
484,-66
485,-134
486,-186
487,-231
488,-276
489,-307
490,-312
491,-297
492,-281
493,-264
494,-255
495,-255
496,-252
497,-238
498,-217
499,-203
500,-198
501,-205
502,-208
503,-198
504,-182
505,-167
506,-165
507,-177
508,-186
509,-179
510,-186
511,-196
512,-179
513,-174
514,-193
515,-191
516,-163
517,-144
518,-130
519,-127
520,-172
521,-215
522,-196
523,-182
524,-184
525,-165
526,-160
527,-170
528,-151
529,-125
530,-113
531,-42
532,191
533,598
534,948
535,680
536,-286
537,-836
538,-437
539,-125
540,-236
541,-205
542,-120
543,-165
544,-163
545,-118
546,-113
547,-101
548,-73
549,-59
550,-52
551,-37
552,-37
553,-40
554,-23
555,-2
556,7
557,18
558,35
559,54
560,80
561,101
562,106
563,113
564,120
565,115
566,111
567,96
568,56
569,7
570,-44
571,-96
572,-132
573,-153
574,-198
575,-243
576,-248
577,-248
578,-269
579,-264
580,-248
581,-241
582,-229
583,-224
584,-226
585,-217
586,-210
587,-203
588,-191
589,-186
590,-193
591,-193
592,-191
593,-186
594,-174
595,-177
596,-222
597,-264
598,-252
599,-226
600,-217
601,-215
602,-236
603,-262
604,-252
605,-241
606,-255
607,-250
608,-224
609,-215
610,-208
611,-182
612,-165
613,-165
614,-167
615,-170
616,-167
617,-153
618,-134
619,-120
620,-108
621,-104
622,-54
623,153
624,541
625,881
626,706
627,-148
628,-739
629,-380
630,-9
631,-120
632,-130
633,-23
634,-56
635,-80
636,-26
637,-14
638,-40
639,-54
640,-66
641,-68
642,-47
643,-28
644,-14
645,-2
646,4
647,11
648,30
649,56
650,80
651,99
652,115
653,122
654,134
655,153
656,160
657,151
658,130
659,92
660,40
661,-21
662,-82
663,-137
664,-191
665,-255
666,-321
667,-364
668,-380
669,-385
670,-390
671,-404
672,-432
673,-451
674,-420
675,-387
676,-385
677,-366
678,-345
679,-338
680,-323
681,-304
682,-297
683,-286
684,-271
685,-269
686,-257
687,-241
688,-236
689,-226
690,-215
691,-212
692,-208
693,-193
694,-184
695,-174
696,-156
697,-148
698,-151
699,-141
700,-132
701,-130
702,-134
703,-146
704,-151
705,-141
706,-127
707,-106
708,-85
709,-70
710,-63
711,-66
712,-70
713,-73
714,-68
715,-59
716,-52
717,-56
718,-59
719,-47
720,-35
721,-11
722,92
723,338
724,690
725,862
726,401
727,-453
728,-619
729,-141
730,-35
731,-174
732,-92
733,-30
734,-94
735,-106
736,-82
737,-80
738,-66
739,-42
740,-28
741,-37
742,-87
743,-111
744,-73
745,-49
746,-56
747,-49
748,-49
749,-56
750,-26
751,11
752,28
753,44
754,59
755,47
756,11
757,0
758,7
759,-23
760,-89
761,-146
762,-179
763,-210
764,-231
765,-250
766,-276
767,-295
768,-286
769,-264
770,-243
771,-234
772,-229
773,-222
774,-212
775,-196
776,-177
777,-170
778,-167
779,-165
780,-163
781,-156
782,-144
783,-139
784,-141
785,-132
786,-127
787,-130
788,-125
789,-113
790,-106
791,-101
792,-101
793,-104
794,-89
795,-78
796,-85
797,-85
798,-89
799,-115
800,-115
801,-92
802,-92
803,-94
804,-85
805,-99
806,-120
807,-111
808,-101
809,-104
810,-101
811,-132
812,-184
813,-186
814,-167
815,-172
816,-165
817,-139
818,-137
819,-137
820,-115
821,-125
822,-165
823,-177
824,-174
825,-186
826,-177
827,-163
828,-172
829,-177
830,-182
831,-205
832,-172
833,23
834,397
835,784
836,735
837,-73
838,-827
839,-614
840,-179
841,-217
842,-245
843,-139
844,-151
845,-165
846,-108
847,-92
848,-101
849,-87
850,-70
851,-54
852,-35
853,-18
854,-2
855,16
856,18
857,16
858,42
859,78
860,96
861,101
862,101
863,104
864,118
865,141
866,160
867,158
868,141
869,118
870,94
871,61
872,14
873,-35
874,-89
875,-130
876,-139
877,-139
878,-137
879,-132
880,-141
881,-174
882,-200
883,-193
884,-170
885,-167
886,-182
887,-217
888,-248
889,-250
890,-238
891,-231
892,-226
893,-226
894,-236
895,-245
896,-236
897,-222
898,-217
899,-210
900,-203
901,-196
902,-182
903,-172
904,-177
905,-167
906,-151
907,-158
908,-153
909,-122
910,-122
911,-148
912,-148
913,-156
914,-179
915,-179
916,-167
917,-170
918,-163
919,-160
920,-160
921,-151
922,-148
923,-151
924,-134
925,-115
926,-125
927,-139
928,-122
929,-94
930,-89
931,-108
932,-130
933,-130
934,-113
935,-96
936,-87
937,-80
938,-78
939,-75
940,-28
941,167
942,555
943,936
944,820
945,-49
946,-765
947,-484
948,-61
949,-120
950,-118
951,-2
952,-63
953,-122
954,-52
955,-14
956,-23
957,-14
958,-21
959,-33
960,-4
961,26
962,30
963,14
964,-16
965,-23
966,14
967,35
968,49
969,78
970,94
971,101
972,122
973,137
974,127
975,115
976,101
977,68
978,26
979,-18
980,-66
981,-113
982,-158
983,-198
984,-212
985,-208
986,-196
987,-191
988,-193
989,-191
990,-196
991,-200
992,-189
993,-172
994,-167
995,-174
996,-196
997,-203
998,-191
999,-208
1000,-226
1001,-224
1002,-226
1003,-224
1004,-212
1005,-210
1006,-210
1007,-205
1008,-205
1009,-205
1010,-193
1011,-179
1012,-174
1013,-172
1014,-172
1015,-172
1016,-160
1017,-184
1018,-226
1019,-217
1020,-186
1021,-191
1022,-205
1023,-212
1024,-208
1025,-191
1026,-177
1027,-172
1028,-174
1029,-165
1030,-144
1031,-127
1032,-118
1033,-132
1034,-170
1035,-179
1036,-167
1037,-170
1038,-163
1039,-141
1040,-141
1041,-144
1042,-130
1043,-113
1044,-96
1045,-37
1046,148
1047,508
1048,881
1049,815
1050,16
1051,-695
1052,-465
1053,-63
1054,-139
1055,-189
1056,-70
1057,-61
1058,-89
1059,-59
1060,-44
1061,-44
1062,-21
1063,0
1064,2
1065,-7
1066,-18
1067,-7
1068,18
1069,33
1070,49
1071,59
1072,61
1073,78
1074,108
1075,137
1076,156
1077,160
1078,153
1079,156
1080,163
1081,151
1082,122
1083,61
1084,-37
1085,-104
1086,-139
1087,-205
1088,-250
1089,-260
1090,-290
1091,-314
1092,-293
1093,-271
1094,-264
1095,-250
1096,-243
1097,-245
1098,-231
1099,-208
1100,-198
1101,-191
1102,-200
1103,-243
1104,-278
1105,-260
1106,-234
1107,-238
1108,-236
1109,-226
1110,-226
1111,-217
1112,-198
1113,-191
1114,-189
1115,-179
1116,-174
1117,-170
1118,-172
1119,-184
1120,-186
1121,-170
1122,-165
1123,-163
1124,-148
1125,-134
1126,-132
1127,-125
1128,-115
1129,-113
1130,-104
1131,-92
1132,-89
1133,-82
1134,-78
1135,-82
1136,-80
1137,-56
1138,-42
1139,-35
1140,-21
1141,-18
1142,-26
1143,-30
1144,-40
1145,-37
1146,-26
1147,-23
1148,-30
1149,-47
1150,-87
1151,-111
1152,-35
1153,172
1154,524
1155,858
1156,718
1157,-94
1158,-695
1159,-375
1160,-14
1161,-130
1162,-153
1163,-42
1164,-61
1165,-96
1166,-66
1167,-61
1168,-73
1169,-54
1170,-30
1171,-23
1172,-16
1173,-14
1174,-16
1175,2
1176,30
1177,47
1178,59
1179,33
1180,-7
1181,16
1182,54
1183,49
1184,61
1185,85
1186,68
1187,40
1188,30
1189,0
1190,-59
1191,-118
1192,-179
1193,-231
1194,-252
1195,-264
1196,-276
1197,-281
1198,-290
1199,-293
1200,-271
1201,-250
1202,-236
1203,-222
1204,-219
1205,-219
1206,-200
1207,-177
1208,-165
1209,-158
1210,-160
1211,-165
1212,-158
1213,-144
1214,-156
1215,-196
1216,-219
1217,-208
1218,-196
1219,-186
1220,-170
1221,-163
1222,-165
1223,-160
1224,-156
1225,-146
1226,-127
1227,-115
1228,-118
1229,-113
1230,-104
1231,-99
1232,-89
1233,-80
1234,-80
1235,-78
1236,-73
1237,-68
1238,-59
1239,-54
1240,-54
1241,-42
1242,-35
1243,-42
1244,-44
1245,-44
1246,-61
1247,-68
1248,-68
1249,-104
1250,-134
1251,-111
1252,-96
1253,-115
1254,-115
1255,-111
1256,-113
1257,-106
1258,-94
1259,-87
1260,-73
1261,-63
1262,-9
1263,196
1264,576
1265,924
1266,799
1267,-21
1268,-664
1269,-378
1270,-16
1271,-108
1272,-115
1273,-7
1274,-33
1275,-80
1276,-59
1277,-47
1278,-59
1279,-63
1280,-59
1281,-80
1282,-108
1283,-82
1284,-42
1285,-30
1286,-21
1287,-11
1288,-2
1289,28
1290,63
1291,92
1292,111
1293,122
1294,132
1295,160
1296,172
1297,156
1298,127
1299,85
1300,18
1301,-47
1302,-96
1303,-141
1304,-179
1305,-215
1306,-252
1307,-267
1308,-250
1309,-241
1310,-248
1311,-262
1312,-267
1313,-252
1314,-229
1315,-215
1316,-203
1317,-191
1318,-222
1319,-283
1320,-286
1321,-245
1322,-234
1323,-234
1324,-226
1325,-229
1326,-226
1327,-210
1328,-189
1329,-179
1330,-179
1331,-177
1332,-172
1333,-163
1334,-146
1335,-134
1336,-132
1337,-134
1338,-132
1339,-113
1340,-99
1341,-101
1342,-113
1343,-125
1344,-127
1345,-120
1346,-118
1347,-148
1348,-182
1349,-163
1350,-134
1351,-134
1352,-115
1353,-82
1354,-87
1355,-104
1356,-99
1357,-96
1358,-92
1359,-80
1360,-80
1361,-75
1362,-56
1363,-52
1364,-23
1365,139
1366,475
1367,858
1368,891
1369,172
1370,-657
1371,-569
1372,-96
1373,-80
1374,-139
1375,-37
1376,-37
1377,-73
1378,-35
1379,-9
1380,2
1381,18
1382,14
1383,-9
1384,-14
1385,7
1386,28
1387,42
1388,47
1389,54
1390,73
1391,82
1392,101
1393,127
1394,132
1395,99
1396,82
1397,113
1398,141
1399,139
1400,118
1401,47
1402,-47
1403,-85
1404,-115
1405,-196
1406,-271
1407,-335
1408,-390
1409,-394
1410,-366
1411,-361
1412,-390
1413,-413
1414,-394
1415,-356
1416,-342
1417,-335
1418,-319
1419,-300
1420,-290
1421,-286
1422,-276
1423,-257
1424,-236
1425,-229
1426,-243
1427,-245
1428,-229
1429,-203
1430,-184
1431,-179
1432,-184
1433,-186
1434,-172
1435,-148
1436,-139
1437,-139
1438,-148
1439,-160
1440,-165
1441,-146
1442,-125
1443,-115
1444,-115
1445,-118
1446,-115
1447,-99
1448,-80
1449,-66
1450,-52
1451,-40
1452,-42
1453,-52
1454,-59
1455,-54
1456,-44
1457,-37
1458,-44
1459,-47
1460,-28
1461,-16
1462,4
1463,151
1464,479
1465,867
1466,945
1467,269
1468,-612
1469,-588
1470,-96
1471,-63
1472,-132
1473,-14
1474,0
1475,-33
1476,9
1477,11
1478,-37
1479,-35
1480,-4
1481,7
1482,16
1483,2
1484,-42
1485,-42
1486,-7
1487,7
1488,9
1489,16
1490,30
1491,44
1492,66
1493,89
1494,113
1495,127
1496,125
1497,113
1498,101
1499,85
1500,47
1501,-4
1502,-70
1503,-141
1504,-189
1505,-203
1506,-210
1507,-212
1508,-208
1509,-212
1510,-226
1511,-226
1512,-219
1513,-224
1514,-229
1515,-226
1516,-229
1517,-222
1518,-205
1519,-200
1520,-200
1521,-200
1522,-208
1523,-205
1524,-191
1525,-186
1526,-179
1527,-177
1528,-189
1529,-189
1530,-170
1531,-153
1532,-144
1533,-139
1534,-153
1535,-170
1536,-165
1537,-148
1538,-137
1539,-134
1540,-170
1541,-222
1542,-229
1543,-229
1544,-260
1545,-255
1546,-226
1547,-222
1548,-210
1549,-174
1550,-151
1551,-148
1552,-158
1553,-170
1554,-167
1555,-146
1556,-127
1557,-118
1558,-113
1559,-111
1560,-106
1561,-37
1562,179
1563,555
1564,907
1565,756
1566,-111
1567,-742
1568,-411
1569,-40
1570,-144
1571,-151
1572,-44
1573,-68
1574,-80
1575,-28
1576,-21
1577,-26
1578,-7
1579,0
1580,4
1581,23
1582,35
1583,42
1584,59
1585,68
1586,82
1587,104
1588,120
1589,137
1590,160
1591,177
1592,186
1593,200
1594,203
1595,182
1596,163
1597,148
1598,111
1599,33
1600,-40
1601,-82
1602,-113
1603,-151
1604,-179
1605,-193
1606,-198
1607,-193
1608,-196
1609,-226
1610,-248
1611,-236
1612,-224
1613,-215
1614,-193
1615,-179
1616,-208
1617,-274
1618,-302
1619,-283
1620,-286
1621,-297
1622,-286
1623,-290
1624,-302
1625,-288
1626,-269
1627,-262
1628,-252
1629,-257
1630,-276
1631,-286
1632,-269
1633,-250
1634,-238
1635,-238
1636,-241
1637,-229
1638,-208
1639,-193
1640,-182
1641,-177
1642,-182
1643,-182
1644,-167
1645,-160
1646,-146
1647,-127
1648,-122
1649,-120
1650,-99
1651,-80
1652,-75
1653,-82
1654,-99
1655,-106
1656,-92
1657,-75
1658,-68
1659,-61
1660,-63
1661,-68
1662,-16
1663,167
1664,520
1665,851
1666,685
1667,-141
1668,-713
1669,-366
1670,-2
1671,-118
1672,-139
1673,-30
1674,-56
1675,-113
1676,-85
1677,-59
1678,-63
1679,-54
1680,-40
1681,-33
1682,-11
1683,4
1684,9
1685,16
1686,-2
1687,-37
1688,-18
1689,26
1690,40
1691,59
1692,94
1693,111
1694,115
1695,113
1696,106
1697,106
1698,101
1699,66
1700,18
1701,-30
1702,-85
1703,-130
1704,-158
1705,-198
1706,-229
1707,-229
1708,-224
1709,-219
1710,-203
1711,-191
1712,-191
1713,-184
1714,-174
1715,-165
1716,-151
1717,-141
1718,-144
1719,-146
1720,-141
1721,-137
1722,-127
1723,-120
1724,-125
1725,-132
1726,-146
1727,-177
1728,-196
1729,-191
1730,-205
1731,-229
1732,-229
1733,-215
1734,-208
1735,-198
1736,-193
1737,-200
1738,-205
1739,-196
1740,-198
1741,-231
1742,-241
1743,-229
1744,-231
1745,-224
1746,-203
1747,-189
1748,-179
1749,-172
1750,-179
1751,-177
1752,-163
1753,-141
1754,-118
1755,-118
1756,-167
1757,-200
1758,-182
1759,-184
1760,-208
1761,-203
1762,-200
1763,-200
1764,-177
1765,-151
1766,-141
1767,-137
1768,-118
1769,-16
1770,262
1771,661
1772,851
1773,387
1774,-479
1775,-666
1776,-184
1777,-42
1778,-167
1779,-94
1780,-35
1781,-80
1782,-70
1783,-26
1784,-16
1785,-11
1786,0
1787,9
1788,16
1789,30
1790,37
1791,30
1792,26
1793,44
1794,68
1795,82
1796,104
1797,132
1798,148
1799,165
1800,186
1801,198
1802,210
1803,217
1804,205
1805,184
1806,134
1807,37
1808,-52
1809,-96
1810,-134
1811,-174
1812,-191
1813,-203
1814,-208
1815,-203
1816,-196
1817,-182
1818,-167
1819,-163
1820,-163
1821,-153
1822,-156
1823,-174
1824,-174
1825,-156
1826,-156
1827,-160
1828,-160
1829,-170
1830,-184
1831,-193
1832,-241
1833,-300
1834,-293
1835,-267
1836,-264
1837,-257
1838,-250
1839,-255
1840,-248
1841,-234
1842,-222
1843,-210
1844,-198
1845,-200
1846,-203
1847,-191
1848,-167
1849,-158
1850,-160
1851,-156
1852,-151
1853,-144
1854,-139
1855,-151
1856,-153
1857,-141
1858,-148
1859,-148
1860,-120
1861,-92
1862,-80
1863,-78
1864,-73
1865,-68
1866,-66
1867,-68
1868,-61
1869,-56
1870,-66
1871,-85
1872,-113
1873,-134
1874,-108
1875,-68
1876,35
1877,340
1878,754
1879,867
1880,260
1881,-593
1882,-643
1883,-174
1884,-82
1885,-144
1886,-49
1887,-42
1888,-96
1889,-61
1890,-26
1891,-37
1892,-18
1893,16
1894,21
1895,14
1896,26
1897,54
1898,73
1899,82
1900,96
1901,118
1902,125
1903,127
1904,148
1905,163
1906,156
1907,156
1908,139
1909,96
1910,104
1911,120
1912,87
1913,49
1914,7
1915,-61
1916,-115
1917,-144
1918,-184
1919,-229
1920,-248
1921,-243
1922,-231
1923,-224
1924,-212
1925,-193
1926,-172
1927,-184
1928,-203
1929,-193
1930,-196
1931,-215
1932,-205
1933,-198
1934,-208
1935,-210
1936,-203
1937,-215
1938,-248
1939,-264
1940,-252
1941,-250
1942,-248
1943,-231
1944,-217
1945,-210
1946,-205
1947,-203
1948,-200
1949,-189
1950,-172
1951,-174
1952,-191
1953,-196
1954,-182
1955,-172
1956,-163
1957,-146
1958,-127
1959,-127
1960,-132
1961,-118
1962,-99
1963,-85
1964,-75
1965,-68
1966,-66
1967,-56
1968,-47
1969,-52
1970,-54
1971,-49
1972,-59
1973,-59
1974,-40
1975,-30
1976,-23
1977,-18
1978,16
1979,234
1980,661
1981,931
1982,498
1983,-463
1984,-820
1985,-352
1986,-104
1987,-191
1988,-113
1989,-30
1990,-80
1991,-78
1992,-26
1993,-14
1994,-9
1995,11
1996,16
1997,11
1998,28
1999,54
2000,78
2001,89
2002,92
2003,75
2004,49
2005,54
2006,96
2007,118
2008,115
2009,125
2010,141
2011,151
2012,156
2013,156
2014,127
2015,68
2016,-2
2017,-61
2018,-101
2019,-141
2020,-179
2021,-198
2022,-203
2023,-205
2024,-189
2025,-182
2026,-200
2027,-205
2028,-193
2029,-203
2030,-210
2031,-196
2032,-191
2033,-193
2034,-189
2035,-189
2036,-191
2037,-189
2038,-186
2039,-182
2040,-172
2041,-172
2042,-174
2043,-170
2044,-170
2045,-163
2046,-158
2047,-172
2048,-186
2049,-177
2050,-167
2051,-167
2052,-153
2053,-156
2054,-203
2055,-236
2056,-212
2057,-193
2058,-186
2059,-167
2060,-158
2061,-167
2062,-165
2063,-151
2064,-132
2065,-108
2066,-99
2067,-96
2068,-113
2069,-153
2070,-172
2071,-151
2072,-144
2073,-160
2074,-160
2075,-141
2076,-120
2077,-106
2078,-96
2079,-89
2080,7
2081,309
2082,737
2083,917
2084,375
2085,-534
2086,-676
2087,-179
2088,-52
2089,-153
2090,-68
2091,-18
2092,-70
2093,-56
2094,-9
2095,-2
2096,4
2097,21
2098,16
2099,14
2100,35
2101,56
2102,70
2103,82
2104,82
2105,70
2106,80
2107,111
2108,134
2109,146
2110,151
2111,151
2112,148
2113,158
2114,165
2115,151
2116,120
2117,78
2118,21
2119,-33
2120,-70
2121,-108
2122,-146
2123,-193
2124,-248
2125,-267
2126,-245
2127,-250
2128,-267
2129,-262
2130,-267
2131,-269
2132,-250
2133,-260
2134,-302
2135,-307
2136,-283
2137,-281
2138,-274
2139,-257
2140,-255
2141,-250
2142,-241
2143,-248
2144,-257
2145,-245
2146,-234
2147,-229
2148,-215
2149,-208
2150,-203
2151,-193
2152,-184
2153,-174
2154,-160
2155,-156
2156,-153
2157,-144
2158,-139
2159,-132
2160,-113
2161,-106
2162,-111
2163,-113
2164,-106
2165,-94
2166,-82
2167,-75
2168,-82
2169,-87
2170,-73
2171,-49
2172,-33
2173,-21
2174,-11
2175,-30
2176,-61
2177,-66
2178,-52
2179,-47
2180,-44
2181,-44
2182,-49
2183,-40
2184,-26
2185,9
2186,146
2187,451
2188,815
2189,879
2190,260
2191,-536
2192,-487
2193,-23
2194,-28
2195,-132
2196,-18
2197,14
2198,-26
2199,-7
2200,-18
2201,-56
2202,-33
2203,2
2204,0
2205,9
2206,21
2207,11
2208,9
2209,35
2210,59
2211,56
2212,16
2213,-21
2214,2
2215,47
2216,68
2217,85
2218,96
2219,94
2220,96
2221,96
2222,78
2223,33
2224,-26
2225,-89
2226,-137
2227,-163
2228,-179
2229,-196
2230,-205
2231,-210
2232,-208
2233,-205
2234,-205
2235,-208
2236,-217
2237,-231
2238,-236
2239,-245
2240,-252
2241,-243
2242,-231
2243,-229
2244,-226
2245,-224
2246,-212
2247,-205
2248,-208
2249,-203
2250,-198
2251,-200
2252,-191
2253,-177
2254,-179
2255,-174
2256,-160
2257,-160
2258,-158
2259,-144
2260,-139
2261,-132
2262,-120
2263,-120
2264,-132
2265,-160
2266,-200
2267,-193
2268,-165
2269,-198
2270,-257
2271,-269
2272,-257
2273,-245
2274,-224
2275,-210
2276,-210
2277,-203
2278,-191
2279,-182
2280,-167
2281,-144
2282,-127
2283,-125
2284,-115
2285,-92
2286,-78
2287,-78
2288,-87
2289,-101
2290,-96
2291,-75
2292,-63
2293,-59
2294,-56
2295,-61
2296,-52
2297,44
2298,304
2299,697
2300,952
2301,591
2302,-307
2303,-664
2304,-226
2305,-11
2306,-141
2307,-104
2308,-33
2309,-66
2310,-52
2311,-9
2312,-2
2313,0
2314,0
2315,2
2316,30
2317,47
2318,37
2319,28
2320,30
2321,44
2322,68
2323,85
2324,101
2325,125
2326,141
2327,151
2328,174
2329,193
2330,177
2331,144
2332,130
2333,115
2334,80
2335,18
2336,-52
2337,-108
2338,-156
2339,-200
2340,-236
2341,-255
2342,-262
2343,-276
2344,-288
2345,-309
2346,-352
2347,-352
2348,-312
2349,-297
2350,-295
2351,-286
2352,-276
2353,-264
2354,-245
2355,-241
2356,-238
2357,-224
2358,-222
2359,-224
2360,-203
2361,-191
2362,-200
2363,-193
2364,-177
2365,-172
2366,-167
2367,-174
2368,-193
2369,-184
2370,-160
2371,-158
2372,-158
2373,-148
2374,-148
2375,-134
2376,-113
2377,-111
2378,-113
2379,-104
2380,-89
2381,-85
2382,-75
2383,-73
2384,-73
2385,-68
2386,-61
2387,-61
2388,-47
2389,-33
2390,-42
2391,-49
2392,-35
2393,-21
2394,-9
2395,9
2396,2
2397,-44
2398,-82
2399,-87
2400,-94
2401,-94
2402,-80
2403,-80
2404,-80
2405,-63
2406,-47
2407,14
2408,234
2409,612
2410,924
2411,718
2412,-137
2413,-697
2414,-359
2415,-28
2416,-125
2417,-106
2418,9
2419,-7
2420,-28
2421,-37
2422,-104
2423,-118
2424,-70
2425,-66
2426,-63
2427,-37
2428,-37
2429,-37
2430,-7
2431,0
2432,-11
2433,4
2434,26
2435,40
2436,63
2437,94
2438,122
2439,144
2440,139
2441,132
2442,139
2443,122
2444,82
2445,28
2446,-56
2447,-134
2448,-186
2449,-219
2450,-238
2451,-248
2452,-257
2453,-260
2454,-257
2455,-238
2456,-219
2457,-210
2458,-208
2459,-203
2460,-191
2461,-174
2462,-191
2463,-255
2464,-286
2465,-262
2466,-248
2467,-250
2468,-234
2469,-215
2470,-215
2471,-212
2472,-200
2473,-189
2474,-184
2475,-177
2476,-170
2477,-158
2478,-151
2479,-148
2480,-137
2481,-125
2482,-122
2483,-118
2484,-108
2485,-104
2486,-99
2487,-92
2488,-89
2489,-85
2490,-80
2491,-113
2492,-160
2493,-153
2494,-137
2495,-158
2496,-170
2497,-156
2498,-146
2499,-139
2500,-120
2501,-104
2502,-87
2503,-73
2504,-78
2505,-94
2506,-101
2507,-89
2508,-70
2509,-59
2510,-56
2511,-56
2512,-56
2513,-30
2514,92
2515,382
2516,780
2517,952
2518,430
2519,-465
2520,-631
2521,-151
2522,-30
2523,-156
2524,-82
2525,-26
2526,-61
2527,-59
2528,-68
2529,-101
2530,-94
2531,-70
2532,-52
2533,-35
2534,-14
2535,-4
2536,-7
2537,2
2538,30
2539,56
2540,78
2541,94
2542,101
2543,115
2544,132
2545,137
2546,134
2547,127
2548,96
2549,70
2550,59
2551,30
2552,-18
2553,-82
2554,-148
2555,-196
2556,-215
2557,-222
2558,-229
2559,-252
2560,-290
2561,-330
2562,-342
2563,-314
2564,-283
2565,-274
2566,-264
2567,-255
2568,-250
2569,-231
2570,-208
2571,-198
2572,-196
2573,-191
2574,-191
2575,-184
2576,-170
2577,-160
2578,-160
2579,-158
2580,-153
2581,-146
2582,-134
2583,-122
2584,-120
2585,-113
2586,-108
2587,-108
2588,-99
2589,-87
2590,-92
2591,-101
2592,-118
2593,-144
2594,-160
2595,-148
2596,-134
2597,-130
2598,-118
2599,-113
2600,-111
2601,-101
2602,-94
2603,-89
2604,-80
2605,-78
2606,-80
2607,-61
2608,-44
2609,-37
2610,-21
2611,-11
2612,-26
2613,-40
2614,-44
2615,-40
2616,-26
2617,-18
2618,-23
2619,-26
2620,-23
2621,-4
2622,85
2623,321
2624,683
2625,921
2626,560
2627,-333
2628,-685
2629,-245
2630,-28
2631,-172
2632,-139
2633,-54
2634,-82
2635,-78
2636,-47
2637,-94
2638,-148
2639,-120
2640,-80
2641,-78
2642,-63
2643,-47
2644,-52
2645,-40
2646,-4
2647,18
2648,37
2649,54
2650,52
2651,49
2652,73
2653,87
2654,82
2655,75
2656,47
2657,23
2658,9
2659,-47
2660,-127
2661,-174
2662,-222
2663,-274
2664,-293
2665,-293
2666,-297
2667,-297
2668,-297
2669,-293
2670,-276
2671,-248
2672,-231
2673,-217
2674,-210
2675,-205
2676,-193
2677,-174
2678,-160
2679,-153
2680,-148
2681,-146
2682,-146
2683,-141
2684,-132
2685,-130
2686,-132
2687,-141
2688,-151
2689,-141
2690,-125
2691,-120
2692,-120
2693,-113
2694,-108
2695,-108
2696,-94
2697,-85
2698,-85
2699,-80
2700,-73
2701,-73
2702,-66
2703,-61
2704,-63
2705,-56
2706,-63
2707,-111
2708,-139
2709,-115
2710,-106
2711,-108
2712,-99
2713,-101
2714,-101
2715,-78
2716,-59
2717,-52
2718,-37
2719,-37
2720,-61
2721,-73
2722,-68
2723,-59
2724,-56
2725,-82
2726,-111
2727,-96
2728,-78
2729,-66
2730,16
2731,260
2732,633
2733,884
2734,565
2735,-286
2736,-654
2737,-219
2738,16
2739,-137
2740,-127
2741,-40
2742,-59
2743,-56
2744,-23
2745,-35
2746,-42
2747,-18
2748,0
2749,4
2750,21
2751,26
2752,11
2753,16
2754,49
2755,73
2756,92
2757,106
2758,113
2759,139
2760,172
2761,186
2762,186
2763,184
2764,158
2765,120
2766,104
2767,82
2768,28
2769,-35
2770,-111
2771,-170
2772,-191
2773,-200
2774,-212
2775,-219
2776,-226
2777,-231
2778,-217
2779,-191
2780,-177
2781,-174
2782,-172
2783,-174
2784,-182
2785,-170
2786,-151
2787,-148
2788,-165
2789,-208
2790,-267
2791,-290
2792,-276
2793,-262
2794,-260
2795,-252
2796,-243
2797,-231
2798,-215
2799,-205
2800,-203
2801,-191
2802,-179
2803,-174
2804,-163
2805,-151
2806,-146
2807,-141
2808,-134
2809,-125
2810,-113
2811,-104
2812,-106
2813,-106
2814,-92
2815,-92
2816,-104
2817,-104
2818,-96
2819,-92
2820,-78
2821,-68
2822,-66
2823,-56
2824,-47
2825,-30
2826,-26
2827,-47
2828,-56
2829,-47
2830,-42
2831,-37
2832,-28
2833,-30
2834,-33
2835,-21
2836,28
2837,215
2838,593
2839,950
2840,801
2841,-37
2842,-680
2843,-406
2844,-21
2845,-78
2846,-92
2847,-2
2848,-33
2849,-66
2850,-37
2851,-37
2852,-49
2853,-37
2854,-35
2855,-54
2856,-75
2857,-59
2858,-40
2859,-82
2860,-120
2861,-82
2862,-37
2863,-23
2864,0
2865,26
2866,30
2867,56
2868,99
2869,122
2870,132
2871,127
2872,80
2873,33
2874,0
2875,-66
2876,-144
2877,-193
2878,-245
2879,-295
2880,-321
2881,-323
2882,-307
2883,-295
2884,-297
2885,-295
2886,-274
2887,-245
2888,-226
2889,-222
2890,-224
2891,-219
2892,-203
2893,-184
2894,-177
2895,-177
2896,-172
2897,-174
2898,-170
2899,-160
2900,-156
2901,-148
2902,-139
2903,-144
2904,-148
2905,-132
2906,-113
2907,-111
2908,-118
2909,-118
2910,-108
2911,-108
2912,-125
2913,-130
2914,-120
2915,-113
2916,-115
2917,-106
2918,-92
2919,-92
2920,-106
2921,-134
2922,-158
2923,-148
2924,-120
2925,-104
2926,-106
2927,-94
2928,-92
2929,-148
2930,-186
2931,-170
2932,-160
2933,-151
2934,-130
2935,-132
2936,-130
2937,-111
2938,-99
2939,-44
2940,167
2941,550
2942,886
2943,706
2944,-170
2945,-810
2946,-491
2947,-104
2948,-174
2949,-167
2950,-52
2951,-63
2952,-70
2953,-23
2954,-23
2955,-37
2956,-28
2957,-26
2958,-18
2959,-2
2960,4
2961,9
2962,18
2963,35
2964,59
2965,82
2966,96
2967,106
2968,115
2969,137
2970,170
2971,189
2972,193
2973,193
2974,179
2975,148
2976,104
2977,54
2978,-14
2979,-101
2980,-177
2981,-229
2982,-257
2983,-262
2984,-262
2985,-274
2986,-307
2987,-323
2988,-300
2989,-267
2990,-257
2991,-252
2992,-250
2993,-245
2994,-231
2995,-215
2996,-200
2997,-196
2998,-243
2999,-302
3000,-290
3001,-248
3002,-245
3003,-245
3004,-241
3005,-241
3006,-234
3007,-222
3008,-231
3009,-234
3010,-219
3011,-219
3012,-215
3013,-191
3014,-170
3015,-167
3016,-165
3017,-160
3018,-158
3019,-144
3020,-122
3021,-120
3022,-127
3023,-120
3024,-106
3025,-89
3026,-63
3027,-44
3028,-49
3029,-56
3030,-70
3031,-80
3032,-66
3033,-49
3034,-52
3035,-49
3036,-44
3037,-42
3038,-28
3039,37
3040,238
3041,619
3042,950
3043,685
3044,-226
3045,-721
3046,-321
3047,-21
3048,-122
3049,-101
3050,-18
3051,-66
3052,-106
3053,-75
3054,-49
3055,-52
3056,-47
3057,-33
3058,-23
3059,-11
3060,11
3061,30
3062,37
3063,44
3064,47
3065,49
3066,70
3067,99
3068,113
3069,118
3070,127
3071,134
3072,130
3073,118
3074,80
3075,2
3076,-52
3077,-75
3078,-120
3079,-172
3080,-203
3081,-241
3082,-271
3083,-267
3084,-250
3085,-243
3086,-241
3087,-255
3088,-267
3089,-260
3090,-252
3091,-245
3092,-234
3093,-231
3094,-238
3095,-229
3096,-210
3097,-200
3098,-196
3099,-193
3100,-203
3101,-203
3102,-186
3103,-186
3104,-205
3105,-212
3106,-212
3107,-210
3108,-196
3109,-177
3110,-167
3111,-160
3112,-165
3113,-167
3114,-151
3115,-134
3116,-141
3117,-177
3118,-200
3119,-189
3120,-172
3121,-163
3122,-146
3123,-134
3124,-137
3125,-141
3126,-137
3127,-115
3128,-89
3129,-73
3130,-68
3131,-63
3132,-61
3133,-63
3134,-63
3135,-75
3136,-96
3137,-104
3138,-94
3139,-85
3140,-73
3141,-66
3142,-52
3143,47
3144,288
3145,626
3146,815
3147,371
3148,-510
3149,-697
3150,-200
3151,-66
3152,-200
3153,-120
3154,-56
3155,-94
3156,-73
3157,-37
3158,-44
3159,-33
3160,-14
3161,-7
3162,9
3163,21
3164,26
3165,40
3166,54
3167,61
3168,61
3169,68
3170,89
3171,111
3172,115
3173,125
3174,148
3175,165
3176,163
3177,151
3178,141
3179,122
3180,85
3181,30
3182,-52
3183,-144
3184,-193
3185,-205
3186,-215
3187,-217
3188,-219
3189,-226
3190,-222
3191,-200
3192,-184
3193,-174
3194,-170
3195,-182
3196,-198
3197,-198
3198,-200
3199,-208
3200,-222
3201,-241
3202,-252
3203,-245
3204,-229
3205,-215
3206,-210
3207,-217
3208,-226
3209,-224
3210,-205
3211,-189
3212,-182
3213,-184
3214,-191
3215,-186
3216,-170
3217,-153
3218,-144
3219,-148
3220,-193
3221,-241
3222,-222
3223,-189
3224,-189
3225,-186
3226,-179
3227,-182
3228,-170
3229,-146
3230,-137
3231,-144
3232,-167
3233,-182
3234,-158
3235,-127
3236,-113
3237,-101
3238,-96
3239,-104
3240,-108
3241,-106
3242,-99
3243,-89
3244,-82
3245,-82
3246,-85
3247,-101
3248,-125
3249,-82
3250,122
3251,484
3252,834
3253,758
3254,-21
3255,-711
3256,-472
3257,-68
3258,-132
3259,-163
3260,-54
3261,-56
3262,-78
3263,-44
3264,-52
3265,-75
3266,-52
3267,-26
3268,-26
3269,-14
3270,11
3271,26
3272,30
3273,44
3274,61
3275,82
3276,108
3277,127
3278,139
3279,144
3280,146
3281,167
3282,196
3283,196
3284,174
3285,158
3286,134
3287,80
3288,21
3289,-28
3290,-85
3291,-146
3292,-184
3293,-196
3294,-189
3295,-200
3296,-260
3297,-316
3298,-304
3299,-267
3300,-248
3301,-248
3302,-260
3303,-281
3304,-290
3305,-276
3306,-257
3307,-248
3308,-245
3309,-252
3310,-260
3311,-245
3312,-238
3313,-281
3314,-326
3315,-312
3316,-297
3317,-300
3318,-281
3319,-262
3320,-248
3321,-236
3322,-241
3323,-238
3324,-212
3325,-193
3326,-189
3327,-186
3328,-191
3329,-200
3330,-184
3331,-163
3332,-151
3333,-141
3334,-148
3335,-158
3336,-141
3337,-120
3338,-113
3339,-106
3340,-106
3341,-113
3342,-99
3343,-75
3344,-66
3345,-66
3346,-59
3347,-49
3348,-42
3349,-35
3350,-42
3351,-54
3352,-52
3353,-49
3354,-56
3355,-47
3356,-23
3357,-16
3358,-11
3359,75
3360,333
3361,739
3362,992
3363,560
3364,-392
3365,-721
3366,-302
3367,-139
3368,-234
3369,-144
3370,-80
3371,-111
3372,-89
3373,-63
3374,-66
3375,-44
3376,-21
3377,-18
3378,-21
3379,-30
3380,-35
3381,-21
3382,-21
3383,-21
3384,4
3385,21
3386,35
3387,63
3388,82
3389,99
3390,125
3391,144
3392,137
3393,125
3394,125
3395,115
3396,78
3397,23
3398,-37
3399,-99
3400,-148
3401,-182
3402,-198
3403,-208
3404,-231
3405,-245
3406,-250
3407,-255
3408,-250
3409,-231
3410,-222
3411,-229
3412,-226
3413,-217
3414,-200
3415,-186
3416,-186
3417,-200
3418,-203
3419,-186
3420,-177
3421,-174
3422,-165
3423,-170
3424,-193
3425,-196
3426,-182
3427,-167
3428,-158
3429,-163
3430,-172
3431,-160
3432,-141
3433,-137
3434,-130
3435,-146
3436,-208
3437,-234
3438,-193
3439,-170
3440,-172
3441,-167
3442,-167
3443,-167
3444,-170
3445,-196
3446,-208
3447,-184
3448,-182
3449,-191
3450,-167
3451,-146
3452,-148
3453,-144
3454,-127
3455,-113
3456,-111
3457,-111
3458,-92
3459,-87
3460,-106
3461,-118
3462,-111
3463,-96
3464,-89
3465,-85
3466,-78
3467,-73
3468,-70
3469,-18
3470,170
3471,534
3472,919
3473,869
3474,66
3475,-673
3476,-451
3477,-30
3478,-96
3479,-139
3480,-33
3481,-49
3482,-92
3483,-59
3484,-44
3485,-54
3486,-40
3487,-37
3488,-56
3489,-61
3490,-44
3491,-26
3492,-14
3493,-4
3494,9
3495,30
3496,47
3497,66
3498,94
3499,113
3500,125
3501,141
3502,153
3503,151
3504,132
3505,99
3506,49
3507,-14
3508,-85
3509,-137
3510,-191
3511,-288
3512,-397
3513,-427
3514,-406
3515,-397
3516,-385
3517,-361
3518,-352
3519,-356
3520,-361
3521,-352
3522,-323
3523,-297
3524,-290
3525,-288
3526,-278
3527,-257
3528,-238
3529,-224
3530,-219
3531,-224
3532,-226
3533,-215
3534,-198
3535,-186
3536,-177
3537,-179
3538,-186
3539,-174
3540,-156
3541,-146
3542,-137
3543,-134
3544,-141
3545,-137
3546,-118
3547,-106
3548,-99
3549,-96
3550,-106
3551,-111
3552,-113
3553,-118
3554,-106
3555,-96
3556,-108
3557,-113
3558,-94
3559,-80
3560,-75
3561,-68
3562,-75
3563,-82
3564,-70
3565,-54
3566,-47
3567,-44
3568,-47
3569,-61
3570,-63
3571,-44
3572,-23
3573,-14
3574,-14
3575,-9
3576,-26
3577,-63
3578,-73
3579,-66
3580,-75
3581,-104
3582,-146
3583,-163
3584,-153
3585,-172
3586,-184
3587,-115
3588,92
3589,460
3590,799
3591,633
3592,-200
3593,-773
3594,-430
3595,-96
3596,-212
3597,-217
3598,-111
3599,-130
3600,-144
3601,-104
3602,-89
3603,-87
3604,-70
3605,-56
3606,-47
3607,-47
3608,-54
3609,-54
3610,-56
3611,-59
3612,-40
3613,-21
3614,-14
3615,0
3616,4
3617,9
3618,40
3619,66
3620,70
3621,75
3622,78
3623,66
3624,44
3625,7
3626,-54
3627,-118
3628,-165
3629,-196
3630,-210
3631,-219
3632,-229
3633,-234
3634,-229
3635,-215
3636,-198
3637,-179
3638,-170
3639,-174
3640,-172
3641,-165
3642,-184
3643,-205
3644,-189
3645,-179
3646,-191
3647,-184
3648,-184
3649,-198
3650,-189
3651,-182
3652,-196
3653,-189
3654,-167
3655,-158
3656,-151
3657,-148
3658,-158
3659,-153
3660,-134
3661,-122
3662,-115
3663,-125
3664,-177
3665,-210
3666,-182
3667,-156
3668,-153
3669,-146
3670,-148
3671,-153
3672,-137
3673,-115
3674,-108
3675,-104
3676,-104
3677,-108
3678,-99
3679,-85
3680,-96
3681,-113
3682,-111
3683,-108
3684,-104
3685,-89
3686,-75
3687,-73
3688,-78
3689,-82
3690,-78
3691,-61
3692,-59
3693,-70
3694,-66
3695,-59
3696,-70
3697,-82
3698,-80
3699,-75
3700,-75
3701,-73
3702,-73
3703,-73
3704,-63
3705,-49
3706,0
3707,167
3708,494
3709,799
3710,621
3711,-212
3712,-770
3713,-425
3714,-108
3715,-255
3716,-274
3717,-179
3718,-210
3719,-217
3720,-167
3721,-170
3722,-174
3723,-146
3724,-137
3725,-134
3726,-113
3727,-99
3728,-89
3729,-70
3730,-54
3731,-35
3732,-9
3733,-7
3734,-37
3735,-37
3736,0
3737,28
3738,52
3739,80
3740,85
3741,75
3742,66
3743,47
3744,-2
3745,-70
3746,-127
3747,-177
3748,-219
3749,-234
3750,-234
3751,-231
3752,-229
3753,-229
3754,-226
3755,-208
3756,-184
3757,-165
3758,-151
3759,-151
3760,-153
3761,-139
3762,-120
3763,-108
3764,-101
3765,-104
3766,-118
3767,-118
3768,-99
3769,-82
3770,-80
3771,-82
3772,-94
3773,-125
3774,-144
3775,-127
3776,-134
3777,-158
3778,-158
3779,-148
3780,-139
3781,-125
3782,-106
3783,-99
3784,-113
3785,-118
3786,-96
3787,-80
3788,-75
3789,-70
3790,-70
3791,-80
3792,-75
3793,-54
3794,-37
3795,-42
3796,-49
3797,-47
3798,-35
3799,-30
3800,-30
3801,-42
3802,-56
3803,-89
3804,-134
3805,-125
3806,-85
3807,-92
3808,-132
3809,-160
3810,-163
3811,-151
3812,-132
3813,-122
3814,-130
3815,-122
3816,-101
3817,-82
3818,16
3819,302
3820,711
3821,914
3822,432
3823,-487
3824,-732
3825,-278
3826,-122
3827,-234
3828,-158
3829,-101
3830,-144
3831,-122
3832,-85
3833,-89
3834,-85
3835,-68
3836,-61
3837,-52
3838,-52
3839,-78
3840,-99
3841,-94
3842,-73
3843,-52
3844,-35
3845,-9
3846,26
3847,52
3848,73
3849,96
3850,113
3851,130
3852,144
3853,146
3854,120
3855,78
3856,30
3857,-23
3858,-80
3859,-120
3860,-148
3861,-182
3862,-200
3863,-196
3864,-179
3865,-165
3866,-158
3867,-158
3868,-148
3869,-127
3870,-111
3871,-106
3872,-122
3873,-153
3874,-156
3875,-132
3876,-122
3877,-118
3878,-111
3879,-134
3880,-193
3881,-203
3882,-167
3883,-158
3884,-160
3885,-170
3886,-210
3887,-234
3888,-212
3889,-189
3890,-177
3891,-167
3892,-174
3893,-177
3894,-158
3895,-137
3896,-122
3897,-120
3898,-122
3899,-115
3900,-104
3901,-96
3902,-87
3903,-89
3904,-130
3905,-165
3906,-139
3907,-111
3908,-106
3909,-94
3910,-78
3911,-78
3912,-89
3913,-104
3914,-113
3915,-113
3916,-106
3917,-106
3918,-111
3919,-99
3920,-78
3921,-73
3922,-63
3923,37
3924,309
3925,713
3926,936
3927,475
3928,-451
3929,-723
3930,-257
3931,-66
3932,-151
3933,-68
3934,-21
3935,-87
3936,-89
3937,-82
3938,-96
3939,-80
3940,-63
3941,-68
3942,-59
3943,-47
3944,-35
3945,-18
3946,-11
3947,2
3948,21
3949,2
3950,-33
3951,-16
3952,21
3953,40
3954,61
3955,82
3956,92
3957,92
3958,82
3959,61
3960,37
3961,-4
3962,-70
3963,-130
3964,-165
3965,-186
3966,-198
3967,-198
3968,-217
3969,-269
3970,-295
3971,-267
3972,-234
3973,-222
3974,-210
3975,-205
3976,-200
3977,-182
3978,-165
3979,-153
3980,-144
3981,-146
3982,-153
3983,-144
3984,-132
3985,-130
3986,-120
3987,-122
3988,-134
3989,-125
3990,-106
3991,-96
3992,-89
3993,-87
3994,-101
3995,-99
3996,-78
3997,-66
3998,-63
3999,-63
4000,-75
4001,-94
4002,-85
4003,-63
4004,-56
4005,-56
4006,-63
4007,-70
4008,-61
4009,-52
4010,-47
4011,-40
4012,-35
4013,-35
4014,-21
4015,-2
4016,2
4017,-7
4018,-40
4019,-101
4020,-130
4021,-104
4022,-80
4023,-87
4024,-87
4025,-82
4026,-63
4027,63
4028,373
4029,777
4030,919
4031,342
4032,-565
4033,-680
4034,-189
4035,-115
4036,-276
4037,-200
4038,-137
4039,-179
4040,-153
4041,-111
4042,-115
4043,-108
4044,-85
4045,-80
4046,-68
4047,-44
4048,-37
4049,-23
4050,-2
4051,4
4052,2
4053,11
4054,18
4055,23
4056,37
4057,56
4058,70
4059,85
4060,89
4061,89
4062,82
4063,63
4064,14
4065,-59
4066,-122
4067,-160
4068,-189
4069,-217
4070,-238
4071,-243
4072,-243
4073,-236
4074,-217
4075,-200
4076,-198
4077,-193
4078,-182
4079,-167
4080,-153
4081,-141
4082,-139
4083,-141
4084,-139
4085,-125
4086,-115
4087,-111
4088,-111
4089,-118
4090,-122
4091,-115
4092,-104
4093,-96
4094,-94
4095,-106
4096,-132
4097,-144
4098,-130
4099,-115
4100,-125
4101,-160
4102,-182
4103,-160
4104,-139
4105,-134
4106,-125
4107,-139
4108,-196
4109,-212
4110,-177
4111,-156
4112,-156
4113,-153
4114,-167
4115,-167
4116,-134
4117,-104
4118,-92
4119,-82
4120,-85
4121,-92
4122,-92
4123,-87
4124,-82
4125,-75
4126,-80
4127,-87
4128,-89
4129,-96
4130,-92
4131,-35
4132,134
4133,468
4134,815
4135,744
4136,-16
4137,-680
4138,-418
4139,-11
4140,-99
4141,-146
4142,-28
4143,-28
4144,-61
4145,-28
4146,-14
4147,-21
4148,-7
4149,-9
4150,-26
4151,-14
4152,-2
4153,-2
4154,16
4155,33
4156,40
4157,54
4158,75
4159,87
4160,94
4161,99
4162,108
4163,134
4164,148
4165,146
4166,127
4167,78
4168,18
4169,-14
4170,-68
4171,-182
4172,-278
4173,-307
4174,-335
4175,-361
4176,-352
4177,-347
4178,-352
4179,-338
4180,-321
4181,-307
4182,-288
4183,-274
4184,-271
4185,-264
4186,-252
4187,-241
4188,-224
4189,-212
4190,-212
4191,-217
4192,-226
4193,-238
4194,-229
4195,-210
4196,-208
4197,-215
4198,-210
4199,-196
4200,-182
4201,-167
4202,-163
4203,-167
4204,-167
4205,-153
4206,-137
4207,-125
4208,-118
4209,-120
4210,-127
4211,-118
4212,-99
4213,-89
4214,-82
4215,-87
4216,-106
4217,-101
4218,-78
4219,-73
4220,-73
4221,-68
4222,-63
4223,-54
4224,-47
4225,-54
4226,-54
4227,-52
4228,-75
4229,-94
4230,-75
4231,-68
4232,-101
4233,-130
4234,-122
4235,-115
4236,-101
4237,-14
4238,226
4239,593
4240,829
4241,453
4242,-442
4243,-780
4244,-309
4245,-68
4246,-212
4247,-179
4248,-87
4249,-111
4250,-104
4251,-61
4252,-61
4253,-63
4254,-42
4255,-30
4256,-28
4257,-35
4258,-33
4259,-16
4260,-14
4261,-14
4262,9
4263,30
4264,37
4265,59
4266,89
4267,108
4268,130
4269,148
4270,156
4271,163
4272,156
4273,130
4274,101
4275,61
4276,-4
4277,-59
4278,-94
4279,-132
4280,-160
4281,-165
4282,-174
4283,-189
4284,-191
4285,-203
4286,-217
4287,-210
4288,-215
4289,-236
4290,-231
4291,-215
4292,-215
4293,-217
4294,-208
4295,-198
4296,-193
4297,-203
4298,-234
4299,-245
4300,-231
4301,-217
4302,-208
4303,-198
4304,-193
4305,-198
4306,-193
4307,-177
4308,-160
4309,-153
4310,-153
4311,-148
4312,-146
4313,-139
4314,-120
4315,-106
4316,-125
4317,-174
4318,-205
4319,-184
4320,-177
4321,-198
4322,-189
4323,-174
4324,-179
4325,-167
4326,-144
4327,-132
4328,-125
4329,-115
4330,-111
4331,-104
4332,-80
4333,-54
4334,-37
4335,-47
4336,-73
4337,-78
4338,-59
4339,-47
4340,-42
4341,-37
4342,-42
4343,-42
4344,-26
4345,49
4346,281
4347,666
4348,936
4349,640
4350,-219
4351,-671
4352,-302
4353,-30
4354,-132
4355,-101
4356,-7
4357,-26
4358,-16
4359,26
4360,18
4361,4
4362,21
4363,28
4364,0
4365,-23
4366,-18
4367,-14
4368,-11
4369,18
4370,54
4371,61
4372,63
4373,82
4374,101
4375,122
4376,148
4377,163
4378,170
4379,184
4380,179
4381,156
4382,132
4383,87
4384,7
4385,-75
4386,-151
4387,-250
4388,-314
4389,-309
4390,-319
4391,-338
4392,-319
4393,-304
4394,-307
4395,-293
4396,-276
4397,-264
4398,-241
4399,-234
4400,-236
4401,-224
4402,-219
4403,-217
4404,-196
4405,-186
4406,-198
4407,-196
4408,-179
4409,-174
4410,-170
4411,-153
4412,-148
4413,-156
4414,-153
4415,-137
4416,-139
4417,-156
4418,-158
4419,-151
4420,-148
4421,-137
4422,-120
4423,-108
4424,-104
4425,-108
4426,-108
4427,-94
4428,-85
4429,-87
4430,-108
4431,-141
4432,-146
4433,-127
4434,-106
4435,-89
4436,-70
4437,-63
4438,-66
4439,-63
4440,-59
4441,-59
4442,-56
4443,-54
4444,-59
4445,-56
4446,-37
4447,-28
4448,-30
4449,-18
4450,118
4451,465
4452,860
4453,862
4454,134
4455,-666
4456,-619
4457,-208
4458,-163
4459,-184
4460,-80
4461,-59
4462,-89
4463,-63
4464,-37
4465,-28
4466,-7
4467,11
4468,11
4469,0
4470,-2
4471,11
4472,28
4473,47
4474,61
4475,66
4476,85
4477,115
4478,139
4479,148
4480,151
4481,151
4482,146
4483,151
4484,163
4485,165
4486,134
4487,80
4488,18
4489,-42
4490,-85
4491,-125
4492,-172
4493,-208
4494,-231
4495,-267
4496,-300
4497,-288
4498,-264
4499,-250
4500,-241
4501,-241
4502,-234
4503,-215
4504,-210
4505,-210
4506,-198
4507,-196
4508,-198
4509,-184
4510,-174
4511,-174
4512,-177
4513,-203
4514,-219
4515,-198
4516,-182
4517,-182
4518,-167
4519,-153
4520,-156
4521,-153
4522,-146
4523,-139
4524,-122
4525,-106
4526,-113
4527,-122
4528,-106
4529,-89
4530,-87
4531,-82
4532,-80
4533,-80
4534,-73
4535,-54
4536,-37
4537,-28
4538,-42
4539,-101
4540,-148
4541,-139
4542,-113
4543,-104
4544,-104
4545,-113
4546,-122
4547,-106
4548,-78
4549,4
4550,243
4551,638
4552,929
4553,628
4554,-276
4555,-737
4556,-323
4557,-35
4558,-146
4559,-111
4560,-7
4561,-52
4562,-96
4563,-70
4564,-61
4565,-70
4566,-49
4567,-21
4568,-7
4569,2
4570,9
4571,11
4572,33
4573,54
4574,56
4575,59
4576,70
4577,68
4578,78
4579,111
4580,141
4581,151
4582,148
4583,144
4584,132
4585,118
4586,85
4587,28
4588,-37
4589,-92
4590,-141
4591,-200
4592,-252
4593,-262
4594,-248
4595,-255
4596,-269
4597,-267
4598,-252
4599,-257
4600,-264
4601,-252
4602,-245
4603,-243
4604,-224
4605,-215
4606,-219
4607,-210
4608,-208
4609,-224
4610,-229
4611,-212
4612,-208
4613,-205
4614,-196
4615,-200
4616,-198
4617,-182
4618,-177
4619,-172
4620,-167
4621,-205
4622,-245
4623,-226
4624,-203
4625,-203
4626,-186
4627,-172
4628,-177
4629,-172
4630,-158
4631,-148
4632,-137
4633,-130
4634,-132
4635,-127
4636,-125
4637,-120
4638,-104
4639,-78
4640,-68
4641,-82
4642,-87
4643,-68
4644,-59
4645,-68
4646,-75
4647,-80
4648,-80
4649,-66
4650,-52
4651,-42
4652,-37
4653,-40
4654,16
4655,238
4656,617
4657,910
4658,678
4659,-186
4660,-737
4661,-373
4662,-30
4663,-139
4664,-134
4665,-35
4666,-73
4667,-87
4668,-30
4669,-16
4670,-21
4671,0
4672,2
4673,-16
4674,-7
4675,21
4676,35
4677,35
4678,2
4679,-42
4680,-35
4681,4
4682,28
4683,49
4684,63
4685,75
4686,96
4687,122
4688,132
4689,125
4690,99
4691,56
4692,11
4693,-33
4694,-82
4695,-125
4696,-165
4697,-193
4698,-203
4699,-196
4700,-186
4701,-189
4702,-200
4703,-208
4704,-224
4705,-252
4706,-252
4707,-234
4708,-229
4709,-229
4710,-222
4711,-212
4712,-203
4713,-196
4714,-196
4715,-191
4716,-189
4717,-191
4718,-182
4719,-174
4720,-174
4721,-177
4722,-198
4723,-222
4724,-208
4725,-184
4726,-186
4727,-179
4728,-165
4729,-163
4730,-160
4731,-146
4732,-141
4733,-132
4734,-120
4735,-118
4736,-127
4737,-141
4738,-148
4739,-134
4740,-118
4741,-113
4742,-113
4743,-108
4744,-101
4745,-94
4746,-80
4747,-73
4748,-75
4749,-82
4750,-82
4751,-68
4752,-42
4753,-33
4754,-68
4755,-113
4756,-113
4757,-94
4758,-101
4759,-101
4760,-92
4761,-96
4762,-99
4763,-85
4764,-73
4765,-66
4766,-47
4767,33
4768,267
4769,635
4770,877
4771,531
4772,-330
4773,-678
4774,-241
4775,-23
4776,-156
4777,-108
4778,-16
4779,-56
4780,-70
4781,-30
4782,-18
4783,-11
4784,11
4785,21
4786,9
4787,-2
4788,-28
4789,-42
4790,-16
4791,2
4792,-2
4793,11
4794,52
4795,78
4796,99
4797,125
4798,137
4799,141
4800,151
4801,144
4802,127
4803,113
4804,78
4805,16
4806,-37
4807,-75
4808,-113
4809,-153
4810,-200
4811,-236
4812,-250
4813,-255
4814,-252
4815,-243
4816,-238
4817,-238
4818,-234
4819,-222
4820,-200
4821,-193
4822,-198
4823,-208
4824,-243
4825,-274
4826,-250
4827,-226
4828,-234
4829,-226
4830,-217
4831,-219
4832,-215
4833,-224
4834,-241
4835,-222
4836,-205
4837,-208
4838,-198
4839,-179
4840,-177
4841,-165
4842,-148
4843,-148
4844,-144
4845,-132
4846,-127
4847,-118
4848,-99
4849,-99
4850,-101
4851,-92
4852,-92
4853,-111
4854,-130
4855,-134
4856,-127
4857,-120
4858,-113
4859,-104
4860,-89
4861,-78
4862,-78
4863,-82
4864,-80
4865,-92
4866,-99
4867,-82
4868,-73
4869,-82
4870,-78
4871,-63
4872,-52
4873,-37
4874,-30
4875,-33
4876,-30
4877,-11
4878,-2
4879,-16
4880,-23
4881,-16
4882,-18
4883,-14
4884,0
4885,4
4886,7
4887,9
4888,54
4889,250
4890,635
4891,1000
4892,869
4893,11
4894,-678
4895,-413
4896,-37
4897,-132
4898,-158
4899,-61
4900,-122
4901,-182
4902,-118
4903,-82
4904,-96
4905,-80
4906,-66
4907,-68
4908,-49
4909,-18
4910,-7
4911,4
4912,21
4913,28
4914,30
4915,42
4916,56
4917,59
4918,47
4919,35
4920,37
4921,63
4922,78
4923,73
4924,66
4925,47
4926,7
4927,-44
4928,-104
4929,-170
4930,-224
4931,-252
4932,-267
4933,-274
4934,-264
4935,-250
4936,-241
4937,-226
4938,-215
4939,-203
4940,-182
4941,-165
4942,-160
4943,-151
4944,-146
4945,-144
4946,-132
4947,-120
4948,-118
4949,-115
4950,-118
4951,-118
4952,-106
4953,-96
4954,-101
4955,-101
4956,-85
4957,-87
4958,-94
4959,-85
4960,-85
4961,-99
4962,-106
4963,-96
4964,-92
4965,-94
4966,-92
4967,-78
4968,-66
4969,-63
4970,-70
4971,-70
4972,-59
4973,-54
4974,-49
4975,-52
4976,-87
4977,-132
4978,-127
4979,-104
4980,-94
4981,-87
4982,-82
4983,-99
4984,-137
4985,-156
4986,-130
4987,-111
4988,-115
4989,-108
4990,-101
4991,-99
4992,-96
4993,-108
4994,-125
4995,-144
4996,-160
4997,-151
4998,-130
4999,-115
5000,-101
5001,-104
5002,-120
5003,-104
5004,-26
5005,172
5006,543
5007,900
5008,761
5009,-75
5010,-718
5011,-439
5012,-63
5013,-127
5014,-156
5015,-68
5016,-85
5017,-113
5018,-82
5019,-68
5020,-85
5021,-85
5022,-63
5023,-49
5024,-42
5025,-49
5026,-66
5027,-61
5028,-33
5029,-4
5030,14
5031,33
5032,49
5033,66
5034,85
5035,111
5036,137
5037,151
5038,153
5039,146
5040,127
5041,104
5042,75
5043,23
5044,-42
5045,-106
5046,-186
5047,-243
5048,-238
5049,-255
5050,-304
5051,-300
5052,-262
5053,-257
5054,-245
5055,-219
5056,-215
5057,-224
5058,-226
5059,-212
5060,-191
5061,-184
5062,-182
5063,-167
5064,-160
5065,-163
5066,-156
5067,-144
5068,-144
5069,-137
5070,-122
5071,-120
5072,-120
5073,-113
5074,-111
5075,-106
5076,-89
5077,-82
5078,-87
5079,-85
5080,-78
5081,-73
5082,-61
5083,-52
5084,-56
5085,-63
5086,-59
5087,-49
5088,-44
5089,-56
5090,-80
5091,-85
5092,-73
5093,-63
5094,-59
5095,-49
5096,-52
5097,-78
5098,-96
5099,-85
5100,-70
5101,-70
5102,-75
5103,-87
5104,-85
5105,-61
5106,-42
5107,-35
5108,-28
5109,-35
5110,-59
5111,-66
5112,-54
5113,-47
5114,-40
5115,-56
5116,-104
5117,-127
5118,-104
5119,-75
5120,33
5121,314
5122,638
5123,697
5124,118
5125,-716
5126,-751
5127,-274
5128,-231
5129,-342
5130,-234
5131,-179
5132,-212
5133,-182
5134,-158
5135,-167
5136,-146
5137,-113
5138,-99
5139,-87
5140,-78
5141,-68
5142,-52
5143,-26
5144,0
5145,18
5146,33
5147,49
5148,73
5149,106
5150,134
5151,156
5152,163
5153,148
5154,125
5155,118
5156,111
5157,75
5158,21
5159,-30
5160,-80
5161,-120
5162,-139
5163,-151
5164,-163
5165,-165
5166,-163
5167,-160
5168,-144
5169,-130
5170,-127
5171,-113
5172,-101
5173,-101
5174,-94
5175,-80
5176,-75
5177,-70
5178,-63
5179,-63
5180,-73
5181,-108
5182,-156
5183,-153
5184,-130
5185,-146
5186,-160
5187,-148
5188,-141
5189,-141
5190,-127
5191,-141
5192,-191
5193,-208
5194,-182
5195,-167
5196,-160
5197,-146
5198,-144
5199,-146
5200,-137
5201,-122
5202,-111
5203,-99
5204,-99
5205,-99
5206,-94
5207,-85
5208,-73
5209,-70
5210,-87
5211,-106
5212,-104
5213,-89
5214,-82
5215,-75
5216,-75
5217,-96
5218,-113
5219,-89
5220,-61
5221,-56
5222,-42
5223,-40
5224,-66
5225,-73
5226,-63
5227,-56
5228,-49
5229,-47
5230,-54
5231,-56
5232,-61
5233,-59
5234,9
5235,219
5236,567
5237,832
5238,548
5239,-304
5240,-721
5241,-304
5242,-54
5243,-196
5244,-167
5245,-66
5246,-104
5247,-141
5248,-141
5249,-148
5250,-146
5251,-120
5252,-96
5253,-87
5254,-80
5255,-73
5256,-56
5257,-28
5258,-4
5259,11
5260,23
5261,9
5262,-14
5263,9
5264,61
5265,87
5266,96
5267,113
5268,118
5269,111
5270,106
5271,85
5272,35
5273,-16
5274,-70
5275,-115
5276,-141
5277,-160
5278,-179
5279,-182
5280,-170
5281,-174
5282,-186
5283,-174
5284,-165
5285,-156
5286,-141
5287,-132
5288,-122
5289,-111
5290,-111
5291,-106
5292,-92
5293,-92
5294,-94
5295,-87
5296,-85
5297,-80
5298,-73
5299,-75
5300,-80
5301,-75
5302,-73
5303,-70
5304,-61
5305,-56
5306,-61
5307,-59
5308,-56
5309,-54
5310,-44
5311,-37
5312,-49
5313,-82
5314,-111
5315,-108
5316,-89
5317,-82
5318,-82
5319,-85
5320,-85
5321,-73
5322,-59
5323,-52
5324,-52
5325,-56
5326,-59
5327,-56
5328,-49
5329,-33
5330,-16
5331,-33
5332,-56
5333,-49
5334,-35
5335,-44
5336,-63
5337,-101
5338,-153
5339,-156
5340,-122
5341,-115
5342,-113
5343,-106
5344,-87
5345,35
5346,349
5347,728
5348,763
5349,92
5350,-687
5351,-600
5352,-141
5353,-137
5354,-217
5355,-122
5356,-127
5357,-179
5358,-141
5359,-111
5360,-120
5361,-104
5362,-89
5363,-99
5364,-85
5365,-54
5366,-35
5367,-26
5368,-14
5369,-7
5370,7
5371,35
5372,68
5373,92
5374,106
5375,122
5376,139
5377,139
5378,113
5379,73
5380,54
5381,42
5382,2
5383,-49
5384,-94
5385,-144
5386,-186
5387,-210
5388,-226
5389,-238
5390,-231
5391,-215
5392,-205
5393,-193
5394,-182
5395,-177
5396,-160
5397,-144
5398,-139
5399,-127
5400,-118
5401,-120
5402,-111
5403,-94
5404,-96
5405,-101
5406,-94
5407,-92
5408,-96
5409,-118
5410,-139
5411,-127
5412,-108
5413,-141
5414,-198
5415,-200
5416,-172
5417,-165
5418,-158
5419,-146
5420,-144
5421,-139
5422,-130
5423,-122
5424,-108
5425,-96
5426,-99
5427,-101
5428,-94
5429,-85
5430,-78
5431,-59
5432,-54
5433,-68
5434,-66
5435,-44
5436,-26
5437,-14
5438,-9
5439,-26
5440,-47
5441,-61
5442,-73
5443,-61
5444,-66
5445,-111
5446,-139
5447,-122
5448,-106
5449,-40
5450,189
5451,581
5452,865
5453,574
5454,-304
5455,-789
5456,-411
5457,-101
5458,-189
5459,-158
5460,-49
5461,-61
5462,-66
5463,-30
5464,-33
5465,-42
5466,-14
5467,11
5468,18
5469,11
5470,-4
5471,-18
5472,-18
5473,-18
5474,-21
5475,-4
5476,14
5477,16
5478,35
5479,78
5480,96
5481,101
5482,113
5483,78
5484,26
5485,21
5486,18
5487,-37
5488,-104
5489,-160
5490,-217
5491,-248
5492,-260
5493,-271
5494,-271
5495,-257
5496,-250
5497,-236
5498,-215
5499,-203
5500,-198
5501,-184
5502,-174
5503,-170
5504,-156
5505,-153
5506,-174
5507,-177
5508,-165
5509,-179
5510,-215
5511,-224
5512,-210
5513,-198
5514,-191
5515,-189
5516,-182
5517,-170
5518,-165
5519,-156
5520,-141
5521,-139
5522,-132
5523,-120
5524,-118
5525,-111
5526,-96
5527,-92
5528,-92
5529,-92
5530,-89
5531,-82
5532,-63
5533,-47
5534,-49
5535,-44
5536,-33
5537,-44
5538,-66
5539,-73
5540,-75
5541,-80
5542,-78
5543,-66
5544,-56
5545,-49
5546,-44
5547,-37
5548,56
5549,335
5550,756
5551,981
5552,508
5553,-437
5554,-713
5555,-238
5556,-35
5557,-122
5558,-47
5559,-23
5560,-125
5561,-113
5562,-56
5563,-78
5564,-80
5565,-56
5566,-66
5567,-63
5568,-35
5569,-33
5570,-40
5571,-21
5572,-11
5573,-9
5574,21
5575,35
5576,4
5577,0
5578,23
5579,40
5580,66
5581,94
5582,99
5583,87
5584,49
5585,-11
5586,-75
5587,-137
5588,-198
5589,-238
5590,-269
5591,-302
5592,-307
5593,-293
5594,-281
5595,-274
5596,-264
5597,-257
5598,-250
5599,-234
5600,-212
5601,-215
5602,-229
5603,-229
5604,-215
5605,-205
5606,-193
5607,-184
5608,-179
5609,-177
5610,-179
5611,-177
5612,-163
5613,-151
5614,-151
5615,-146
5616,-141
5617,-139
5618,-125
5619,-115
5620,-118
5621,-111
5622,-99
5623,-101
5624,-96
5625,-87
5626,-89
5627,-85
5628,-87
5629,-134
5630,-174
5631,-148
5632,-120
5633,-130
5634,-132
5635,-125
5636,-125
5637,-132
5638,-134
5639,-127
5640,-113
5641,-127
5642,-167
5643,-177
5644,-153
5645,-137
5646,-99
5647,59
5648,387
5649,791
5650,860
5651,172
5652,-657
5653,-576
5654,-106
5655,-104
5656,-182
5657,-66
5658,-37
5659,-70
5660,-37
5661,-18
5662,-33
5663,-16
5664,7
5665,4
5666,-9
5667,-9
5668,0
5669,18
5670,44
5671,66
5672,87
5673,96
5674,101
5675,122
5676,148
5677,156
5678,160
5679,170
5680,160
5681,148
5682,139
5683,115
5684,70
5685,11
5686,-61
5687,-115
5688,-137
5689,-153
5690,-165
5691,-170
5692,-182
5693,-189
5694,-170
5695,-148
5696,-139
5697,-148
5698,-193
5699,-257
5700,-271
5701,-252
5702,-257
5703,-267
5704,-262
5705,-264
5706,-267
5707,-276
5708,-302
5709,-309
5710,-293
5711,-295
5712,-293
5713,-274
5714,-257
5715,-252
5716,-245
5717,-236
5718,-231
5719,-219
5720,-203
5721,-191
5722,-189
5723,-179
5724,-174
5725,-170
5726,-156
5727,-141
5728,-141
5729,-148
5730,-165
5731,-177
5732,-158
5733,-134
5734,-120
5735,-106
5736,-89
5737,-87
5738,-87
5739,-87
5740,-94
5741,-92
5742,-80
5743,-78
5744,-78
5745,-66
5746,-59
5747,-56
5748,-14
5749,130
5750,442
5751,820
5752,865
5753,198
5754,-583
5755,-491
5756,-26
5757,-33
5758,-130
5759,-23
5760,4
5761,-44
5762,-42
5763,-30
5764,-30
5765,-14
5766,7
5767,18
5768,23
5769,26
5770,33
5771,49
5772,70
5773,66
5774,23
5775,-23
5776,-23
5777,18
5778,59
5779,85
5780,113
5781,122
5782,115
5783,118
5784,120
5785,96
5786,52
5787,-21
5788,-108
5789,-158
5790,-177
5791,-196
5792,-210
5793,-224
5794,-250
5795,-248
5796,-219
5797,-205
5798,-193
5799,-184
5800,-186
5801,-184
5802,-165
5803,-148
5804,-146
5805,-141
5806,-144
5807,-146
5808,-139
5809,-134
5810,-148
5811,-160
5812,-182
5813,-205
5814,-203
5815,-189
5816,-184
5817,-184
5818,-186
5819,-191
5820,-189
5821,-177
5822,-163
5823,-158
5824,-158
5825,-163
5826,-172
5827,-167
5828,-148
5829,-141
5830,-144
5831,-139
5832,-134
5833,-132
5834,-118
5835,-111
5836,-118
5837,-115
5838,-106
5839,-122
5840,-130
5841,-106
5842,-94
5843,-96
5844,-104
5845,-115
5846,-113
5847,-99
5848,-99
5849,-94
5850,-96
5851,-144
5852,-172
5853,-127
5854,4
5855,290
5856,685
5857,813
5858,234
5859,-614
5860,-657
5861,-156
5862,-78
5863,-198
5864,-118
5865,-68
5866,-106
5867,-80
5868,-40
5869,-42
5870,-40
5871,-26
5872,-18
5873,-7
5874,16
5875,33
5876,40
5877,44
5878,61
5879,82
5880,108
5881,132
5882,151
5883,160
5884,172
5885,198
5886,219
5887,229
5888,231
5889,210
5890,153
5891,96
5892,40
5893,-28
5894,-82
5895,-127
5896,-174
5897,-193
5898,-186
5899,-184
5900,-179
5901,-177
5902,-184
5903,-177
5904,-170
5905,-191
5906,-212
5907,-198
5908,-196
5909,-198
5910,-179
5911,-163
5912,-158
5913,-158
5914,-179
5915,-200
5916,-200
5917,-205
5918,-215
5919,-208
5920,-210
5921,-224
5922,-234
5923,-231
5924,-217
5925,-212
5926,-234
5927,-281
5928,-302
5929,-274
5930,-248
5931,-248
5932,-245
5933,-238
5934,-236
5935,-224
5936,-203
5937,-193
5938,-191
5939,-184
5940,-179
5941,-170
5942,-153
5943,-144
5944,-139
5945,-134
5946,-132
5947,-125
5948,-111
5949,-101
5950,-101
5951,-96
5952,-92
5953,-101
5954,-115
5955,-118
5956,-118
5957,-104
5958,-85
5959,-78
5960,-68
5961,-52
5962,-47
5963,-52
5964,-56
5965,-68
5966,-68
5967,-56
5968,-56
5969,-52
5970,-59
5971,-89
5972,-92
5973,-14
5974,189
5975,543
5976,862
5977,669
5978,-167
5979,-692
5980,-328
5981,-2
5982,-113
5983,-113
5984,-21
5985,-59
5986,-94
5987,-59
5988,-37
5989,-35
5990,-35
5991,-52
5992,-59
5993,-40
5994,-23
5995,-11
5996,-21
5997,-66
5998,-80
5999,-42
6000,-9
6001,9
6002,35
6003,49
6004,52
6005,75
6006,104
6007,113
6008,113
6009,96
6010,61
6011,28
6012,-14
6013,-78
6014,-134
6015,-179
6016,-234
6017,-269
6018,-283
6019,-288
6020,-276
6021,-269
6022,-276
6023,-269
6024,-245
6025,-229
6026,-217
6027,-205
6028,-210
6029,-215
6030,-203
6031,-189
6032,-179
6033,-174
6034,-179
6035,-186
6036,-203
6037,-243
6038,-257
6039,-234
6040,-229
6041,-236
6042,-222
6043,-200
6044,-189
6045,-184
6046,-177
6047,-174
6048,-172
6049,-172
6050,-177
6051,-179
6052,-170
6053,-165
6054,-165
6055,-153
6056,-137
6057,-132
6058,-125
6059,-113
6060,-113
6061,-113
6062,-101
6063,-94
6064,-99
6065,-99
6066,-122
6067,-170
6068,-163
6069,-130
6070,-134
6071,-137
6072,-120
6073,-120
6074,-118
6075,-101
6076,-96
6077,-94
6078,-87
6079,-85
6080,-80
6081,-73
6082,-82
6083,-85
6084,-59
6085,-52
6086,-75
6087,-87
6088,-85
6089,-87
6090,-96
6091,-96
6092,-94
6093,-94
6094,-94
6095,-78
6096,7
6097,250
6098,633
6099,884
6100,550
6101,-312
6102,-713
6103,-342
6104,-115
6105,-222
6106,-182
6107,-94
6108,-115
6109,-113
6110,-73
6111,-82
6112,-106
6113,-101
6114,-115
6115,-137
6116,-118
6117,-99
6118,-108
6119,-99
6120,-66
6121,-42
6122,-28
6123,-14
6124,-4
6125,18
6126,49
6127,73
6128,89
6129,99
6130,96
6131,94
6132,92
6133,73
6134,40
6135,-14
6136,-120
6137,-215
6138,-229
6139,-234
6140,-257
6141,-257
6142,-255
6143,-264
6144,-248
6145,-226
6146,-226
6147,-224
6148,-210
6149,-208
6150,-203
6151,-182
6152,-165
6153,-160
6154,-163
6155,-165
6156,-156
6157,-139
6158,-130
6159,-134
6160,-137
6161,-132
6162,-127
6163,-122
6164,-115
6165,-106
6166,-101
6167,-111
6168,-134
6169,-153
6170,-134
6171,-115
6172,-122
6173,-120
6174,-111
6175,-108
6176,-92
6177,-82
6178,-108
6179,-125
6180,-113
6181,-106
6182,-99
6183,-87
6184,-89
6185,-82
6186,-68
6187,-70
6188,-75
6189,-66
6190,-61
6191,-66
6192,-78
6193,-92
6194,-89
6195,-82
6196,-82
6197,-70
6198,-47
6199,-40
6200,-59
6201,-73
6202,-78
6203,-75
6204,-66
6205,-59
6206,-59
6207,-59
6208,-61
6209,-52
6210,16
6211,234
6212,602
6213,832
6214,468
6215,-439
6216,-877
6217,-487
6218,-212
6219,-302
6220,-255
6221,-158
6222,-179
6223,-170
6224,-127
6225,-134
6226,-139
6227,-111
6228,-87
6229,-73
6230,-56
6231,-47
6232,-40
6233,-28
6234,-35
6235,-52
6236,-26
6237,7
6238,7
6239,21
6240,66
6241,92
6242,82
6243,80
6244,89
6245,85
6246,85
6247,70
6248,30
6249,-30
6250,-94
6251,-139
6252,-167
6253,-189
6254,-196
6255,-193
6256,-198
6257,-198
6258,-177
6259,-153
6260,-141
6261,-132
6262,-130
6263,-132
6264,-122
6265,-104
6266,-99
6267,-96
6268,-92
6269,-94
6270,-101
6271,-94
6272,-80
6273,-87
6274,-115
6275,-132
6276,-125
6277,-118
6278,-108
6279,-101
6280,-99
6281,-99
6282,-96
6283,-89
6284,-80
6285,-82
6286,-82
6287,-80
6288,-115
6289,-165
6290,-148
6291,-118
6292,-127
6293,-125
6294,-111
6295,-120
6296,-132
6297,-137
6298,-141
6299,-153
6300,-182
6301,-189
6302,-163
6303,-141
6304,-148
6305,-160
6306,-179
6307,-200
6308,-191
6309,-177
6310,-170
6311,-156
6312,-139
6313,-137
6314,-127
6315,-30
6316,226
6317,626
6318,891
6319,501
6320,-444
6321,-836
6322,-411
6323,-167
6324,-257
6325,-198
6326,-125
6327,-170
6328,-167
6329,-122
6330,-113
6331,-104
6332,-87
6333,-85
6334,-82
6335,-63
6336,-40
6337,-28
6338,-35
6339,-44
6340,-28
6341,2
6342,28
6343,52
6344,80
6345,92
6346,94
6347,108
6348,132
6349,139
6350,134
6351,108
6352,61
6353,16
6354,-23
6355,-68
6356,-106
6357,-153
6358,-234
6359,-283
6360,-260
6361,-231
6362,-229
6363,-215
6364,-203
6365,-226
6366,-243
6367,-217
6368,-191
6369,-196
6370,-238
6371,-297
6372,-297
6373,-255
6374,-241
6375,-238
6376,-229
6377,-229
6378,-226
6379,-208
6380,-191
6381,-182
6382,-179
6383,-179
6384,-172
6385,-156
6386,-139
6387,-134
6388,-132
6389,-127
6390,-122
6391,-113
6392,-96
6393,-87
6394,-89
6395,-85
6396,-80
6397,-78
6398,-68
6399,-66
6400,-70
6401,-61
6402,-59
6403,-59
6404,-42
6405,-26
6406,-33
6407,-40
6408,-44
6409,-54
6410,-49
6411,-37
6412,-40
6413,-35
6414,-23
6415,-30
6416,-23
6417,111
6418,437
6419,829
6420,879
6421,189
6422,-633
6423,-550
6424,-78
6425,-75
6426,-156
6427,-52
6428,-37
6429,-80
6430,-56
6431,-56
6432,-96
6433,-92
6434,-78
6435,-89
6436,-80
6437,-54
6438,-52
6439,-56
6440,-80
6441,-127
6442,-132
6443,-87
6444,-56
6445,-40
6446,-11
6447,2
6448,9
6449,30
6450,49
6451,52
6452,42
6453,9
6454,-44
6455,-94
6456,-132
6457,-167
6458,-198
6459,-229
6460,-257
6461,-257
6462,-238
6463,-226
6464,-215
6465,-208
6466,-219
6467,-224
6468,-198
6469,-174
6470,-163
6471,-156
6472,-158
6473,-158
6474,-141
6475,-125
6476,-118
6477,-113
6478,-118
6479,-127
6480,-118
6481,-104
6482,-94
6483,-92
6484,-101
6485,-106
6486,-94
6487,-78
6488,-73
6489,-70
6490,-68
6491,-70
6492,-70
6493,-63
6494,-52
6495,-47
6496,-49
6497,-68
6498,-96
6499,-96
6500,-75
6501,-80
6502,-89
6503,-92
6504,-120
6505,-137
6506,-106
6507,-85
6508,-99
6509,-104
6510,-111
6511,-115
6512,-101
6513,-87
6514,-85
6515,-78
6516,-73
6517,-75
6518,-37
6519,115
6520,434
6521,822
6522,893
6523,234
6524,-583
6525,-529
6526,-61
6527,-44
6528,-127
6529,-26
6530,-14
6531,-68
6532,-37
6533,-9
6534,-18
6535,-9
6536,9
6537,14
6538,9
6539,4
6540,11
6541,28
6542,37
6543,47
6544,66
6545,85
6546,106
6547,130
6548,146
6549,158
6550,174
6551,193
6552,205
6553,210
6554,191
6555,144
6556,92
6557,37
6558,-21
6559,-63
6560,-104
6561,-165
6562,-243
6563,-304
6564,-326
6565,-309
6566,-295
6567,-302
6568,-307
6569,-283
6570,-260
6571,-248
6572,-231
6573,-229
6574,-241
6575,-231
6576,-210
6577,-203
6578,-193
6579,-208
6580,-267
6581,-288
6582,-252
6583,-236
6584,-241
6585,-234
6586,-231
6587,-231
6588,-217
6589,-198
6590,-184
6591,-174
6592,-179
6593,-186
6594,-186
6595,-186
6596,-174
6597,-163
6598,-165
6599,-163
6600,-148
6601,-141
6602,-134
6603,-118
6604,-106
6605,-104
6606,-96
6607,-70
6608,-49
6609,-56
6610,-78
6611,-85
6612,-78
6613,-66
6614,-56
6615,-54
6616,-52
6617,-44
6618,-40
6619,4
6620,167
6621,503
6622,884
6623,893
6624,163
6625,-633
6626,-534
6627,-111
6628,-148
6629,-222
6630,-99
6631,-80
6632,-118
6633,-75
6634,-44
6635,-52
6636,-42
6637,-21
6638,-2
6639,9
6640,18
6641,37
6642,61
6643,63
6644,70
6645,92
6646,111
6647,130
6648,163
6649,163
6650,120
6651,115
6652,141
6653,130
6654,120
6655,118
6656,75
6657,7
6658,-63
6659,-134
6660,-182
6661,-203
6662,-229
6663,-260
6664,-264
6665,-250
6666,-236
6667,-215
6668,-200
6669,-205
6670,-200
6671,-177
6672,-158
6673,-146
6674,-146
6675,-167
6676,-182
6677,-179
6678,-184
6679,-189
6680,-189
6681,-203
6682,-212
6683,-200
6684,-191
6685,-186
6686,-174
6687,-179
6688,-196
6689,-193
6690,-196
6691,-205
6692,-191
6693,-186
6694,-222
6695,-248
6696,-222
6697,-198
6698,-196
6699,-184
6700,-177
6701,-174
6702,-153
6703,-127
6704,-115
6705,-115
6706,-137
6707,-146
6708,-127
6709,-106
6710,-99
6711,-92
6712,-92
6713,-101
6714,-87
6715,7
6716,262
6717,669
6718,959
6719,607
6720,-335
6721,-739
6722,-309
6723,-85
6724,-193
6725,-153
6726,-127
6727,-182
6728,-146
6729,-99
6730,-108
6731,-96
6732,-73
6733,-68
6734,-54
6735,-28
6736,-14
6737,-2
6738,16
6739,30
6740,49
6741,75
6742,96
6743,115
6744,139
6745,156
6746,167
6747,179
6748,184
6749,182
6750,172
6751,139
6752,94
6753,35
6754,-42
6755,-115
6756,-144
6757,-170
6758,-215
6759,-257
6760,-288
6761,-290
6762,-264
6763,-252
6764,-250
6765,-236
6766,-224
6767,-212
6768,-193
6769,-182
6770,-182
6771,-182
6772,-172
6773,-165
6774,-156
6775,-144
6776,-144
6777,-151
6778,-156
6779,-156
6780,-160
6781,-167
6782,-177
6783,-200
6784,-210
6785,-203
6786,-215
6787,-231
6788,-222
6789,-217
6790,-231
6791,-224
6792,-208
6793,-193
6794,-174
6795,-170
6796,-177
6797,-163
6798,-134
6799,-134
6800,-146
6801,-177
6802,-224
6803,-236
6804,-203
6805,-182
6806,-177
6807,-170
6808,-165
6809,-92
6810,163
6811,581
6812,905
6813,614
6814,-323
6815,-784
6816,-338
6817,-59
6818,-210
6819,-200
6820,-111
6821,-144
6822,-141
6823,-87
6824,-94
6825,-144
6826,-158
6827,-139
6828,-118
6829,-99
6830,-73
6831,-54
6832,-42
6833,-28
6834,-4
6835,23
6836,52
6837,78
6838,96
6839,118
6840,137
6841,156
6842,167
6843,165
6844,146
6845,115
6846,73
6847,14
6848,-37
6849,-85
6850,-146
6851,-193
6852,-205
6853,-208
6854,-205
6855,-196
6856,-191
6857,-179
6858,-167
6859,-177
6860,-186
6861,-174
6862,-163
6863,-158
6864,-148
6865,-144
6866,-144
6867,-137
6868,-137
6869,-137
6870,-134
6871,-165
6872,-215
6873,-217
6874,-196
6875,-193
6876,-186
6877,-174
6878,-177
6879,-179
6880,-170
6881,-174
6882,-200
6883,-234
6884,-245
6885,-245
6886,-234
6887,-217
6888,-198
6889,-184
6890,-205
6891,-257
6892,-274
6893,-248
6894,-229
6895,-222
6896,-210
6897,-208
6898,-208
6899,-193
6900,-148
6901,-4
6902,319
6903,713
6904,801
6905,167
6906,-661
6907,-617
6908,-115
6909,-108
6910,-234
6911,-127
6912,-78
6913,-115
6914,-99
6915,-89
6916,-108
6917,-94
6918,-63
6919,-49
6920,-33
6921,-18
6922,-16
6923,-7
6924,21
6925,47
6926,70
6927,94
6928,108
6929,120
6930,148
6931,182
6932,203
6933,212
6934,210
6935,196
6936,174
6937,141
6938,89
6939,28
6940,-44
6941,-137
6942,-210
6943,-217
6944,-203
6945,-212
6946,-231
6947,-241
6948,-236
6949,-215
6950,-191
6951,-182
6952,-172
6953,-160
6954,-153
6955,-151
6956,-165
6957,-193
6958,-193
6959,-170
6960,-174
6961,-191
6962,-191
6963,-186
6964,-186
6965,-182
6966,-174
6967,-177
6968,-172
6969,-163
6970,-156
6971,-151
6972,-141
6973,-141
6974,-141
6975,-132
6976,-130
6977,-132
6978,-141
6979,-153
6980,-139
6981,-111
6982,-106
6983,-111
6984,-118
6985,-141
6986,-172
6987,-184
6988,-177
6989,-170
6990,-160
6991,-151
6992,-153
6993,-156
6994,-122
6995,21
6996,352
6997,747
6998,801
6999,115
7000,-687
7001,-588
7002,-101
7003,-104
7004,-198
7005,-99
7006,-80
7007,-113
7008,-73
7009,-40
7010,-61
7011,-80
7012,-75
7013,-54
7014,-35
7015,-16
7016,-4
7017,-33
7018,-73
7019,-49
7020,0
7021,18
7022,23
7023,11
7024,7
7025,42
7026,80
7027,96
7028,111
7029,113
7030,82
7031,44
7032,11
7033,-35
7034,-87
7035,-130
7036,-174
7037,-200
7038,-191
7039,-182
7040,-172
7041,-163
7042,-170
7043,-182
7044,-163
7045,-139
7046,-127
7047,-115
7048,-113
7049,-118
7050,-113
7051,-96
7052,-87
7053,-82
7054,-85
7055,-87
7056,-82
7057,-75
7058,-70
7059,-70
7060,-70
7061,-73
7062,-87
7063,-99
7064,-92
7065,-87
7066,-94
7067,-94
7068,-92
7069,-94
7070,-85
7071,-75
7072,-80
7073,-75
7074,-78
7075,-92
7076,-92
7077,-78
7078,-80
7079,-87
7080,-78
7081,-66
7082,-52
7083,-37
7084,-42
7085,-59
7086,-82
7087,-153
7088,-234
7089,-269
7090,-267
7091,-252
7092,-238
7093,-234
7094,-234
7095,-215
7096,-139
7097,89
7098,479
7099,773
7100,482
7101,-387
7102,-810
7103,-380
7104,-89
7105,-212
7106,-198
7107,-120
7108,-156
7109,-148
7110,-94
7111,-82
7112,-85
7113,-70
7114,-61
7115,-44
7116,-18
7117,0
7118,9
7119,18
7120,30
7121,54
7122,82
7123,108
7124,132
7125,144
7126,151
7127,172
7128,200
7129,215
7130,219
7131,208
7132,174
7133,139
7134,101
7135,49
7136,0
7137,-40
7138,-87
7139,-125
7140,-130
7141,-118
7142,-111
7143,-113
7144,-118
7145,-108
7146,-87
7147,-73
7148,-68
7149,-63
7150,-68
7151,-73
7152,-61
7153,-56
7154,-89
7155,-139
7156,-151
7157,-146
7158,-163
7159,-167
7160,-151
7161,-151
7162,-174
7163,-219
7164,-252
7165,-231
7166,-205
7167,-208
7168,-200
7169,-182
7170,-184
7171,-196
7172,-186
7173,-170
7174,-165
7175,-165
7176,-163
7177,-151
7178,-134
7179,-130
7180,-144
7181,-158
7182,-165
7183,-177
7184,-177
7185,-172
7186,-165
7187,-148
7188,-137
7189,-134
7190,-122
7191,-113
7192,-120
7193,-127
7194,-122
7195,-122
7196,-120
7197,-111
7198,-106
7199,-101
7200,-87
7201,-78
7202,-21
7203,198
7204,579
7205,851
7206,520
7207,-359
7208,-744
7209,-316
7210,-59
7211,-160
7212,-108
7213,-18
7214,-59
7215,-63
7216,-23
7217,-14
7218,-11
7219,-23
7220,-59
7221,-54
7222,-21
7223,-9
7224,7
7225,35
7226,44
7227,52
7228,73
7229,96
7230,120
7231,151
7232,177
7233,177
7234,156
7235,148
7236,160
7237,174
7238,153
7239,66
7240,-37
7241,-85
7242,-108
7243,-148
7244,-174
7245,-193
7246,-215
7247,-215
7248,-196
7249,-174
7250,-158
7251,-156
7252,-170
7253,-172
7254,-148
7255,-134
7256,-130
7257,-127
7258,-137
7259,-141
7260,-122
7261,-111
7262,-111
7263,-106
7264,-111
7265,-122
7266,-134
7267,-146
7268,-144
7269,-130
7270,-137
7271,-141
7272,-125
7273,-111
7274,-120
7275,-134
7276,-148
7277,-170
7278,-177
7279,-165
7280,-153
7281,-148
7282,-146
7283,-153
7284,-160
7285,-167
7286,-191
7287,-200
7288,-186
7289,-177
7290,-174
7291,-160
7292,-146
7293,-148
7294,-141
7295,-120
7296,-111
7297,-108
7298,-96
7299,-106
7300,-120
7301,-115
7302,-118
7303,-122
7304,-108
7305,-94
7306,-92
7307,-82
7308,-87
7309,-125
7310,-80
7311,172
7312,569
7313,839
7314,548
7315,-319
7316,-777
7317,-385
7318,-87
7319,-167
7320,-115
7321,-18
7322,-54
7323,-59
7324,-9
7325,0
7326,0
7327,21
7328,28
7329,33
7330,44
7331,37
7332,35
7333,54
7334,73
7335,92
7336,113
7337,125
7338,134
7339,167
7340,200
7341,200
7342,196
7343,200
7344,198
7345,193
7346,172
7347,125
7348,63
7349,7
7350,-54
7351,-127
7352,-184
7353,-208
7354,-231
7355,-238
7356,-217
7357,-191
7358,-182
7359,-184
7360,-182
7361,-165
7362,-158
7363,-165
7364,-167
7365,-165
7366,-179
7367,-198
7368,-200
7369,-203
7370,-203
7371,-200
7372,-215
7373,-222
7374,-193
7375,-182
7376,-196
7377,-196
7378,-215
7379,-271
7380,-281
7381,-234
7382,-212
7383,-219
7384,-219
7385,-217
7386,-203
7387,-189
7388,-179
7389,-167
7390,-165
7391,-160
7392,-144
7393,-137
7394,-141
7395,-153
7396,-158
7397,-148
7398,-141
7399,-139
7400,-120
7401,-96
7402,-89
7403,-92
7404,-85
7405,-66
7406,-47
7407,-47
7408,-66
7409,-73
7410,-63
7411,-52
7412,-42
7413,-42
7414,-42
7415,-30
7416,-16
7417,70
7418,366
7419,787
7420,912
7421,321
7422,-550
7423,-645
7424,-174
7425,-68
7426,-158
7427,-73
7428,-28
7429,-68
7430,-56
7431,-23
7432,-16
7433,0
7434,23
7435,28
7436,21
7437,26
7438,35
7439,40
7440,54
7441,70
7442,80
7443,89
7444,108
7445,132
7446,158
7447,174
7448,184
7449,189
7450,191
7451,182
7452,174
7453,160
7454,92
7455,-30
7456,-113
7457,-134
7458,-172
7459,-243
7460,-283
7461,-295
7462,-319
7463,-326
7464,-295
7465,-276
7466,-271
7467,-264
7468,-264
7469,-255
7470,-229
7471,-212
7472,-208
7473,-200
7474,-200
7475,-196
7476,-179
7477,-172
7478,-167
7479,-165
7480,-172
7481,-186
7482,-215
7483,-229
7484,-205
7485,-186
7486,-200
7487,-203
7488,-179
7489,-163
7490,-163
7491,-182
7492,-196
7493,-184
7494,-167
7495,-158
7496,-146
7497,-134
7498,-132
7499,-132
7500,-122
7501,-108
7502,-96
7503,-92
7504,-96
7505,-99
7506,-89
7507,-68
7508,-42
7509,-35
7510,-33
7511,-30
7512,-33
7513,-42
7514,-37
7515,-33
7516,-33
7517,-30
7518,-26
7519,-23
7520,-16
7521,-4
7522,54
7523,257
7524,612
7525,888
7526,621
7527,-255
7528,-751
7529,-366
7530,-68
7531,-184
7532,-160
7533,-59
7534,-82
7535,-87
7536,-42
7537,-37
7538,-49
7539,-42
7540,-42
7541,-37
7542,-14
7543,-7
7544,-11
7545,7
7546,28
7547,23
7548,0
7549,-9
7550,18
7551,47
7552,63
7553,87
7554,106
7555,96
7556,78
7557,70
7558,56
7559,23
7560,-23
7561,-89
7562,-158
7563,-212
7564,-257
7565,-278
7566,-276
7567,-271
7568,-276
7569,-283
7570,-278
7571,-257
7572,-238
7573,-222
7574,-208
7575,-210
7576,-210
7577,-191
7578,-174
7579,-165
7580,-153
7581,-156
7582,-167
7583,-160
7584,-141
7585,-137
7586,-144
7587,-165
7588,-186
7589,-179
7590,-158
7591,-148
7592,-139
7593,-132
7594,-141
7595,-144
7596,-125
7597,-108
7598,-101
7599,-104
7600,-144
7601,-193
7602,-182
7603,-148
7604,-144
7605,-139
7606,-134
7607,-141
7608,-134
7609,-113
7610,-101
7611,-96
7612,-94
7613,-99
7614,-122
7615,-144
7616,-130
7617,-108
7618,-111
7619,-125
7620,-125
7621,-101
7622,-82
7623,-89
7624,-106
7625,-108
7626,-104
7627,-94
7628,-80
7629,-70
7630,-68
7631,-63
7632,-44
7633,47
7634,312
7635,704
7636,938
7637,560
7638,-319
7639,-633
7640,-182
7641,16
7642,-127
7643,-78
7644,-4
7645,-61
7646,-70
7647,-26
7648,-30
7649,-33
7650,-16
7651,-23
7652,-30
7653,-11
7654,2
7655,14
7656,35
7657,47
7658,54
7659,73
7660,96
7661,115
7662,141
7663,167
7664,177
7665,186
7666,191
7667,177
7668,153
7669,122
7670,61
7671,-11
7672,-70
7673,-122
7674,-165
7675,-193
7676,-248
7677,-319
7678,-342
7679,-347
7680,-364
7681,-345
7682,-319
7683,-330
7684,-335
7685,-304
7686,-278
7687,-264
7688,-248
7689,-243
7690,-248
7691,-231
7692,-210
7693,-203
7694,-191
7695,-186
7696,-196
7697,-191
7698,-172
7699,-160
7700,-151
7701,-146
7702,-153
7703,-151
7704,-130
7705,-118
7706,-108
7707,-104
7708,-111
7709,-115
7710,-99
7711,-82
7712,-75
7713,-70
7714,-75
7715,-89
7716,-89
7717,-73
7718,-61
7719,-61
7720,-61
7721,-63
7722,-59
7723,-47
7724,-35
7725,-35
7726,-37
7727,-42
7728,-42
7729,-37
7730,-26
7731,-11
7732,-4
7733,-2
7734,4
7735,14
7736,14
7737,2
7738,-9
7739,-9
7740,-9
7741,-7
7742,4
7743,7
7744,-14
7745,-42
7746,7
7747,226
7748,591
7749,869
7750,600
7751,-248
7752,-709
7753,-364
7754,-113
7755,-226
7756,-210
7757,-122
7758,-144
7759,-151
7760,-115
7761,-101
7762,-99
7763,-80
7764,-61
7765,-52
7766,-42
7767,-28
7768,-16
7769,0
7770,23
7771,40
7772,52
7773,73
7774,92
7775,96
7776,111
7777,127
7778,122
7779,101
7780,85
7781,85
7782,75
7783,42
7784,-7
7785,-70
7786,-127
7787,-167
7788,-191
7789,-208
7790,-219
7791,-236
7792,-238
7793,-222
7794,-198
7795,-182
7796,-172
7797,-172
7798,-172
7799,-160
7800,-141
7801,-130
7802,-120
7803,-125
7804,-134
7805,-122
7806,-104
7807,-104
7808,-99
7809,-106
7810,-153
7811,-196
7812,-186
7813,-163
7814,-158
7815,-167
7816,-215
7817,-245
7818,-212
7819,-186
7820,-189
7821,-177
7822,-172
7823,-177
7824,-156
7825,-132
7826,-127
7827,-122
7828,-118
7829,-118
7830,-101
7831,-82
7832,-78
7833,-78
7834,-75
7835,-75
7836,-68
7837,-52
7838,-47
7839,-44
7840,-33
7841,-21
7842,-26
7843,-37
7844,-42
7845,-40
7846,-47
7847,-61
7848,-61
7849,-47
7850,-33
7851,-28
7852,-30
7853,-28
7854,-11
7855,75
7856,338
7857,742
7858,962
7859,527
7860,-373
7861,-659
7862,-208
7863,-21
7864,-139
7865,-78
7866,-11
7867,-59
7868,-44
7869,0
7870,-7
7871,-4
7872,14
7873,16
7874,9
7875,-4
7876,-23
7877,-16
7878,18
7879,35
7880,35
7881,44
7882,61
7883,75
7884,85
7885,82
7886,87
7887,106
7888,113
7889,115
7890,118
7891,85
7892,2
7893,-92
7894,-148
7895,-179
7896,-217
7897,-250
7898,-297
7899,-354
7900,-361
7901,-333
7902,-314
7903,-290
7904,-267
7905,-269
7906,-271
7907,-262
7908,-260
7909,-243
7910,-224
7911,-226
7912,-224
7913,-203
7914,-184
7915,-177
7916,-170
7917,-170
7918,-172
7919,-158
7920,-144
7921,-137
7922,-122
7923,-122
7924,-132
7925,-122
7926,-106
7927,-89
7928,-80
7929,-80
7930,-85
7931,-87
7932,-70
7933,-52
7934,-47
7935,-54
7936,-66
7937,-61
7938,-44
7939,-52
7940,-61
7941,-66
7942,-106
7943,-141
7944,-127
7945,-118
7946,-115
7947,-96
7948,-94
7949,-101
7950,-89
7951,-68
7952,-52
7953,23
7954,257
7955,643
7956,912
7957,579
7958,-307
7959,-704
7960,-290
7961,-54
7962,-191
7963,-160
7964,-59
7965,-99
7966,-127
7967,-85
7968,-75
7969,-80
7970,-54
7971,-59
7972,-80
7973,-52
7974,-21
7975,-26
7976,-11
7977,18
7978,33
7979,44
7980,70
7981,89
7982,106
7983,132
7984,148
7985,163
7986,172
7987,156
7988,127
7989,99
7990,42
7991,-26
7992,-75
7993,-132
7994,-182
7995,-210
7996,-229
7997,-236
7998,-226
7999,-224
8000,-224
8001,-215
8002,-203
8003,-208
8004,-210
8005,-198
8006,-193
8007,-212
8008,-243
8009,-245
8010,-215
8011,-203
8012,-210
8013,-210
8014,-200
8015,-196
8016,-182
8017,-170
8018,-167
8019,-160
8020,-156
8021,-151
8022,-137
8023,-120
8024,-115
8025,-118
8026,-113
8027,-104
8028,-99
8029,-94
8030,-82
8031,-70
8032,-73
8033,-63
8034,-35
8035,-37
8036,-66
8037,-96
8038,-151
8039,-174
8040,-139
8041,-115
8042,-115
8043,-106
8044,-104
8045,-99
8046,-2
8047,264
8048,680
8049,966
8050,574
8051,-373
8052,-709
8053,-236
8054,-11
8055,-130
8056,-82
8057,-11
8058,-37
8059,-23
8060,16
8061,18
8062,11
8063,23
8064,35
8065,49
8066,66
8067,59
8068,44
8069,59
8070,80
8071,94
8072,108
8073,92
8074,63
8075,78
8076,99
8077,104
8078,118
8079,127
8080,120
8081,108
8082,75
8083,23
8084,-21
8085,-68
8086,-118
8087,-148
8088,-167
8089,-186
8090,-186
8091,-177
8092,-174
8093,-163
8094,-144
8095,-137
8096,-130
8097,-122
8098,-137
8099,-163
8100,-182
8101,-198
8102,-205
8103,-193
8104,-193
8105,-196
8106,-184
8107,-179
8108,-186
8109,-184
8110,-179
8111,-177
8112,-167
8113,-170
8114,-219
8115,-257
8116,-238
8117,-212
8118,-203
8119,-184
8120,-163
8121,-158
8122,-158
8123,-153
8124,-153
8125,-144
8126,-130
8127,-127
8128,-130
8129,-115
8130,-101
8131,-108
8132,-82
8133,96
8134,470
8135,865
8136,799
8137,-14
8138,-730
8139,-520
8140,-144
8141,-189
8142,-196
8143,-82
8144,-85
8145,-115
8146,-89
8147,-68
8148,-59
8149,-35
8150,-9
8151,-2
8152,-4
8153,7
8154,28
8155,52
8156,73
8157,87
8158,92
8159,108
8160,139
8161,163
8162,182
8163,182
8164,163
8165,158
8166,170
8167,165
8168,137
8169,96
8170,35
8171,-30
8172,-78
8173,-99
8174,-120
8175,-139
8176,-148
8177,-156
8178,-153
8179,-134
8180,-113
8181,-106
8182,-108
8183,-132
8184,-174
8185,-179
8186,-146
8187,-141
8188,-158
8189,-167
8190,-172
8191,-170
8192,-160
8193,-156
8194,-167
8195,-184
8196,-200
8197,-198
8198,-179
8199,-179
8200,-189
8201,-177
8202,-158
8203,-160
8204,-172
8205,-189
8206,-191
8207,-177
8208,-179
8209,-191
8210,-179
8211,-179
8212,-193
8213,-196
8214,-196
8215,-200
8216,-165
8217,7
8218,378
8219,787
8220,758
8221,-35
8222,-787
8223,-586
8224,-158
8225,-200
8226,-241
8227,-148
8228,-174
8229,-203
8230,-153
8231,-132
8232,-127
8233,-96
8234,-85
8235,-92
8236,-78
8237,-47
8238,-26
8239,-9
8240,9
8241,18
8242,33
8243,61
8244,94
8245,120
8246,141
8247,153
8248,151
8249,158
8250,167
8251,158
8252,134
8253,85
8254,11
8255,-44
8256,-70
8257,-96
8258,-122
8259,-153
8260,-182
8261,-177
8262,-148
8263,-134
8264,-127
8265,-132
8266,-174
8267,-205
8268,-182
8269,-174
8270,-215
8271,-229
8272,-212
8273,-215
8274,-210
8275,-196
8276,-184
8277,-177
8278,-174
8279,-179
8280,-172
8281,-156
8282,-144
8283,-139
8284,-146
8285,-153
8286,-139
8287,-111
8288,-87
8289,-80
8290,-85
8291,-101
8292,-125
8293,-120
8294,-94
8295,-89
8296,-94
8297,-94
8298,-104
8299,-111
8300,-68
8301,78
8302,406
8303,817
8304,877
8305,179
8306,-638
8307,-567
8308,-104
8309,-87
8310,-170
8311,-80
8312,-54
8313,-80
8314,-54
8315,-33
8316,-35
8317,-28
8318,-11
8319,-7
8320,-16
8321,-16
8322,-11
8323,-23
8324,-37
8325,-23
8326,-7
8327,4
8328,26
8329,16
8330,-21
8331,-14
8332,14
8333,16
8334,7
8335,-23
8336,-70
8337,-101
8338,-139
8339,-191
8340,-219
8341,-238
8342,-269
8343,-288
8344,-286
8345,-271
8346,-252
8347,-236
8348,-226
8349,-222
8350,-210
8351,-189
8352,-172
8353,-165
8354,-151
8355,-153
8356,-174
8357,-167
8358,-144
8359,-137
8360,-137
8361,-141
8362,-148
8363,-141
8364,-125
8365,-115
8366,-106
8367,-108
8368,-118
8369,-111
8370,-94
8371,-89
8372,-82
8373,-80
8374,-89
8375,-87
8376,-73
8377,-68
8378,-68
8379,-68
8380,-75
8381,-70
8382,-42
8383,-23
8384,-23
8385,-28
8386,-40
8387,-61
8388,-70
8389,-63
8390,-49
8391,-47
8392,-54
8393,-59
8394,-35
8395,70
8396,345
8397,742
8398,888
8399,271
8400,-680
8401,-791
8402,-281
8403,-186
8404,-309
8405,-226
8406,-177
8407,-208
8408,-170
8409,-134
8410,-144
8411,-134
8412,-113
8413,-101
8414,-80
8415,-61
8416,-52
8417,-42
8418,-40
8419,-54
8420,-68
8421,-66
8422,-47
8423,-23
8424,-9
8425,2
8426,21
8427,35
8428,35
8429,35
8430,30
8431,2
8432,-37
8433,-80
8434,-134
8435,-170
8436,-189
8437,-210
8438,-224
8439,-217
8440,-210
8441,-200
8442,-182
8443,-170
8444,-167
8445,-156
8446,-146
8447,-137
8448,-125
8449,-118
8450,-127
8451,-139
8452,-153
8453,-148
8454,-132
8455,-127
8456,-132
8457,-130
8458,-127
8459,-120
8460,-108
8461,-99
8462,-101
8463,-106
8464,-104
8465,-101
8466,-120
8467,-148
8468,-144
8469,-137
8470,-144
8471,-130
8472,-106
8473,-96
8474,-92
8475,-96
8476,-106
8477,-99
8478,-80
8479,-70
8480,-63
8481,-89
8482,-144
8483,-167
8484,-158
8485,-148
8486,-134
8487,-130
8488,-146
8489,-160
8490,-153
8491,-146
8492,-170
8493,-215
8494,-236
8495,-210
8496,-177
8497,-163
8498,-153
8499,-153
8500,-172
8501,-177
8502,-156
8503,-134
8504,-125
8505,-111
8506,-108
8507,-113
8508,-75
8509,75
8510,390
8511,754
8512,770
8513,75
8514,-706
8515,-612
8516,-170
8517,-184
8518,-269
8519,-170
8520,-151
8521,-182
8522,-139
8523,-113
8524,-120
8525,-106
8526,-89
8527,-82
8528,-63
8529,-40
8530,-33
8531,-21
8532,-4
8533,7
8534,28
8535,49
8536,63
8537,80
8538,99
8539,111
8540,125
8541,141
8542,144
8543,141
8544,139
8545,118
8546,87
8547,37
8548,-33
8549,-80
8550,-101
8551,-160
8552,-226
8553,-226
8554,-205
8555,-200
8556,-186
8557,-167
8558,-182
8559,-208
8560,-200
8561,-174
8562,-160
8563,-153
8564,-151
8565,-151
8566,-146
8567,-134
8568,-120
8569,-113
8570,-113
8571,-118
8572,-118
8573,-111
8574,-104
8575,-111
8576,-122
8577,-127
8578,-130
8579,-139
8580,-151
8581,-148
8582,-134
8583,-139
8584,-148
8585,-134
8586,-118
8587,-111
8588,-101
8589,-104
8590,-113
8591,-101
8592,-85
8593,-75
8594,-68
8595,-68
8596,-80
8597,-89
8598,-92
8599,-92
8600,-104
8601,-120
8602,-130
8603,-130
8604,-120
8605,-108
8606,-101
8607,-101
8608,-111
8609,-115
8610,-111
8611,-115
8612,-132
8613,-122
8614,-108
8615,-104
8616,-89
8617,-73
8618,-73
8619,-85
8620,-111
8621,-153
8622,-177
8623,-167
8624,-182
8625,-205
8626,-191
8627,-153
8628,-42
8629,264
8630,671
8631,782
8632,182
8633,-628
8634,-621
8635,-144
8636,-94
8637,-196
8638,-101
8639,-61
8640,-104
8641,-75
8642,-35
8643,-47
8644,-63
8645,-49
8646,-30
8647,-26
8648,-7
8649,18
8650,26
8651,40
8652,61
8653,73
8654,87
8655,113
8656,127
8657,144
8658,165
8659,163
8660,146
8661,151
8662,153
8663,139
8664,120
8665,85
8666,35
8667,-9
8668,-52
8669,-92
8670,-113
8671,-130
8672,-144
8673,-148
8674,-144
8675,-146
8676,-151
8677,-146
8678,-137
8679,-134
8680,-132
8681,-132
8682,-141
8683,-144
8684,-153
8685,-174
8686,-179
8687,-170
8688,-167
8689,-186
8690,-226
8691,-245
8692,-238
8693,-229
8694,-217
8695,-203
8696,-208
8697,-252
8698,-288
8699,-264
8700,-234
8701,-234
8702,-219
8703,-210
8704,-219
8705,-210
8706,-184
8707,-184
8708,-196
8709,-196
8710,-193
8711,-186
8712,-167
8713,-148
8714,-134
8715,-130
8716,-134
8717,-132
8718,-113
8719,-96
8720,-89
8721,-85
8722,-85
8723,-85
8724,-73
8725,-63
8726,-54
8727,-54
8728,-63
8729,-66
8730,-47
8731,-26
8732,-4
8733,4
8734,-4
8735,-21
8736,-30
8737,-21
8738,-7
8739,-18
8740,-42
8741,-44
8742,-35
8743,-40
8744,9
8745,222
8746,591
8747,888
8748,647
8749,-200
8750,-669
8751,-286
8752,-2
8753,-120
8754,-104
8755,-37
8756,-99
8757,-106
8758,-56
8759,-54
8760,-59
8761,-40
8762,-23
8763,-11
8764,-4
8765,-4
8766,-23
8767,-66
8768,-96
8769,-87
8770,-66
8771,-59
8772,-63
8773,-92
8774,-111
8775,-85
8776,-56
8777,-49
8778,-30
8779,-26
8780,-49
8781,-75
8782,-99
8783,-137
8784,-174
8785,-205
8786,-238
8787,-262
8788,-264
8789,-255
8790,-243
8791,-229
8792,-217
8793,-212
8794,-203
8795,-184
8796,-163
8797,-146
8798,-148
8799,-151
8800,-139
8801,-127
8802,-122
8803,-120
8804,-132
8805,-151
8806,-153
8807,-137
8808,-125
8809,-120
8810,-113
8811,-108
8812,-113
8813,-106
8814,-87
8815,-78
8816,-75
8817,-75
8818,-85
8819,-82
8820,-78
8821,-106
8822,-122
8823,-106
8824,-104
8825,-108
8826,-87
8827,-70
8828,-68
8829,-66
8830,-75
8831,-78
8832,-56
8833,-40
8834,-35
8835,-42
8836,-99
8837,-170
8838,-182
8839,-160
8840,-156
8841,-146
8842,-137
8843,-144
8844,-127
8845,-92
8846,-85
8847,-94
8848,-101
8849,-113
8850,-111
8851,-87
8852,-68
8853,-73
8854,-75
8855,-66
8856,-14
8857,160
8858,513
8859,886
8860,822
8861,28
8862,-723
8863,-553
8864,-139
8865,-167
8866,-196
8867,-89
8868,-108
8869,-151
8870,-101
8871,-75
8872,-85
8873,-66
8874,-49
8875,-49
8876,-30
8877,-11
8878,-9
8879,7
8880,35
8881,42
8882,54
8883,80
8884,92
8885,104
8886,115
8887,89
8888,75
8889,104
8890,120
8891,108
8892,108
8893,89
8894,42
8895,-14
8896,-66
8897,-108
8898,-130
8899,-151
8900,-189
8901,-200
8902,-184
8903,-172
8904,-160
8905,-148
8906,-144
8907,-144
8908,-134
8909,-111
8910,-94
8911,-87
8912,-82
8913,-92
8914,-108
8915,-101
8916,-82
8917,-75
8918,-92
8919,-144
8920,-177
8921,-160
8922,-139
8923,-139
8924,-137
8925,-144
8926,-151
8927,-137
8928,-115
8929,-108
8930,-106
8931,-106
8932,-120
8933,-122
8934,-106
8935,-92
8936,-85
8937,-82
8938,-92
8939,-94
8940,-78
8941,-59
8942,-56
8943,-61
8944,-66
8945,-66
8946,-54
8947,-47
8948,-49
8949,-44
8950,-44
8951,-61
8952,-99
8953,-130
8954,-113
8955,-92
8956,-115
8957,-139
8958,-132
8959,-111
8960,-101
8961,-101
8962,-96
8963,-99
8964,-113
8965,-92
8966,37
8967,340
8968,742
8969,888
8970,330
8971,-548
8972,-680
8973,-231
8974,-137
8975,-217
8976,-125
8977,-99
8978,-146
8979,-120
8980,-85
8981,-94
8982,-96
8983,-75
8984,-56
8985,-54
8986,-49
8987,-33
8988,-37
8989,-78
8990,-82
8991,-42
8992,-18
8993,-4
8994,21
8995,40
8996,47
8997,56
8998,68
8999,78
9000,82
9001,75
9002,49
9003,14
9004,-33
9005,-87
9006,-125
9007,-156
9008,-191
9009,-215
9010,-215
9011,-208
9012,-196
9013,-179
9014,-174
9015,-172
9016,-163
9017,-165
9018,-196
9019,-215
9020,-200
9021,-193
9022,-198
9023,-179
9024,-165
9025,-163
9026,-148
9027,-148
9028,-174
9029,-182
9030,-156
9031,-141
9032,-141
9033,-146
9034,-153
9035,-141
9036,-127
9037,-118
9038,-108
9039,-108
9040,-120
9041,-115
9042,-94
9043,-82
9044,-75
9045,-75
9046,-85
9047,-89
9048,-80
9049,-63
9050,-44
9051,-35
9052,-42
9053,-42
9054,-37
9055,-44
9056,-49
9057,-49
9058,-92
9059,-160
9060,-170
9061,-141
9062,-132
9063,-130
9064,-87
9065,82
9066,449
9067,855
9068,822
9069,16
9070,-747
9071,-560
9072,-146
9073,-182
9074,-208
9075,-101
9076,-108
9077,-139
9078,-106
9079,-85
9080,-78
9081,-61
9082,-54
9083,-56
9084,-70
9085,-80
9086,-54
9087,-28
9088,-21
9089,-4
9090,14
9091,16
9092,14
9093,9
9094,14
9095,21
9096,16
9097,11
9098,18
9099,14
9100,-14
9101,-47
9102,-92
9103,-148
9104,-198
9105,-231
9106,-257
9107,-274
9108,-274
9109,-278
9110,-278
9111,-267
9112,-257
9113,-241
9114,-222
9115,-215
9116,-212
9117,-198
9118,-186
9119,-177
9120,-163
9121,-156
9122,-160
9123,-165
9124,-182
9125,-191
9126,-177
9127,-165
9128,-172
9129,-179
9130,-172
9131,-160
9132,-151
9133,-146
9134,-172
9135,-224
9136,-231
9137,-198
9138,-184
9139,-182
9140,-189
9141,-238
9142,-269
9143,-245
9144,-219
9145,-203
9146,-174
9147,-165
9148,-167
9149,-174
9150,-203
9151,-219
9152,-205
9153,-198
9154,-205
9155,-196
9156,-191
9157,-196
9158,-177
9159,-146
9160,-54
9161,224
9162,645
9163,867
9164,399
9165,-505
9166,-723
9167,-234
9168,-70
9169,-196
9170,-120
9171,-49
9172,-96
9173,-92
9174,-44
9175,-35
9176,-30
9177,-11
9178,-4
9179,-4
9180,11
9181,37
9182,52
9183,61
9184,73
9185,80
9186,89
9187,92
9188,82
9189,87
9190,108
9191,122
9192,125
9193,132
9194,134
9195,120
9196,85
9197,33
9198,-30
9199,-85
9200,-120
9201,-151
9202,-186
9203,-208
9204,-248
9205,-290
9206,-274
9207,-243
9208,-252
9209,-257
9210,-252
9211,-260
9212,-264
9213,-260
9214,-262
9215,-288
9216,-312
9217,-302
9218,-286
9219,-288
9220,-307
9221,-312
9222,-293
9223,-283
9224,-286
9225,-278
9226,-264
9227,-255
9228,-241
9229,-231
9230,-229
9231,-219
9232,-210
9233,-198
9234,-189
9235,-186
9236,-189
9237,-177
9238,-156
9239,-134
9240,-111
9241,-96
9242,-106
9243,-125
9244,-134
9245,-122
9246,-99
9247,-87
9248,-85
9249,-85
9250,-87
9251,-78
9252,-9
9253,224
9254,624
9255,903
9256,565
9257,-323
9258,-702
9259,-250
9260,-2
9261,-153
9262,-134
9263,-40
9264,-61
9265,-59
9266,-11
9267,-14
9268,-30
9269,-11
9270,14
9271,23
9272,37
9273,35
9274,-11
9275,-37
9276,2
9277,40
9278,56
9279,75
9280,75
9281,59
9282,85
9283,122
9284,115
9285,101
9286,106
9287,92
9288,59
9289,23
9290,-28
9291,-89
9292,-146
9293,-189
9294,-205
9295,-198
9296,-196
9297,-196
9298,-200
9299,-212
9300,-212
9301,-193
9302,-177
9303,-172
9304,-170
9305,-170
9306,-167
9307,-156
9308,-137
9309,-134
9310,-141
9311,-137
9312,-134
9313,-137
9314,-127
9315,-132
9316,-163
9317,-174
9318,-160
9319,-158
9320,-158
9321,-160
9322,-174
9323,-179
9324,-184
9325,-198
9326,-198
9327,-193
9328,-198
9329,-191
9330,-177
9331,-172
9332,-158
9333,-148
9334,-153
9335,-158
9336,-156
9337,-151
9338,-144
9339,-130
9340,-127
9341,-125
9342,-111
9343,-92
9344,9
9345,304
9346,704
9347,829
9348,255
9349,-645
9350,-789
9351,-307
9352,-184
9353,-283
9354,-182
9355,-125
9356,-203
9357,-234
9358,-193
9359,-165
9360,-153
9361,-127
9362,-108
9363,-106
9364,-92
9365,-61
9366,-35
9367,-14
9368,9
9369,23
9370,35
9371,68
9372,104
9373,130
9374,158
9375,174
9376,170
9377,182
9378,196
9379,172
9380,118
9381,42
9382,-37
9383,-96
9384,-130
9385,-153
9386,-172
9387,-182
9388,-191
9389,-191
9390,-174
9391,-156
9392,-139
9393,-127
9394,-132
9395,-132
9396,-111
9397,-92
9398,-89
9399,-80
9400,-85
9401,-101
9402,-99
9403,-82
9404,-78
9405,-80
9406,-80
9407,-87
9408,-106
9409,-113
9410,-111
9411,-134
9412,-179
9413,-186
9414,-165
9415,-158
9416,-156
9417,-144
9418,-141
9419,-141
9420,-137
9421,-132
9422,-120
9423,-113
9424,-113
9425,-125
9426,-170
9427,-203
9428,-179
9429,-153
9430,-151
9431,-153
9432,-158
9433,-174
9434,-189
9435,-200
9436,-203
9437,-184
9438,-177
9439,-184
9440,-163
9441,-151
9442,-165
9443,-141
9444,-35
9445,229
9446,638
9447,825
9448,267
9449,-640
9450,-765
9451,-283
9452,-167
9453,-248
9454,-137
9455,-80
9456,-115
9457,-92
9458,-61
9459,-56
9460,-54
9461,-35
9462,-7
9463,9
9464,14
9465,26
9466,44
9467,59
9468,73
9469,101
9470,120
9471,127
9472,146
9473,184
9474,208
9475,217
9476,219
9477,184
9478,153
9479,160
9480,160
9481,108
9482,35
9483,-33
9484,-92
9485,-127
9486,-139
9487,-146
9488,-148
9489,-156
9490,-163
9491,-151
9492,-132
9493,-115
9494,-99
9495,-115
9496,-172
9497,-191
9498,-160
9499,-144
9500,-139
9501,-134
9502,-146
9503,-148
9504,-134
9505,-122
9506,-118
9507,-132
9508,-177
9509,-191
9510,-167
9511,-160
9512,-165
9513,-148
9514,-146
9515,-160
9516,-151
9517,-130
9518,-127
9519,-125
9520,-120
9521,-120
9522,-120
9523,-108
9524,-99
9525,-96
9526,-92
9527,-89
9528,-99
9529,-104
9530,-104
9531,-104
9532,-115
9533,-125
9534,-115
9535,-115
9536,-122
9537,-127
9538,-134
9539,-137
9540,-139
9541,-151
9542,-167
9543,-200
9544,-222
9545,-182
9546,-40
9547,262
9548,673
9549,817
9550,229
9551,-657
9552,-735
9553,-255
9554,-158
9555,-234
9556,-137
9557,-94
9558,-122
9559,-99
9560,-68
9561,-61
9562,-54
9563,-42
9564,-23
9565,-7
9566,7
9567,11
9568,18
9569,40
9570,73
9571,96
9572,96
9573,94
9574,115
9575,148
9576,172
9577,182
9578,153
9579,108
9580,104
9581,111
9582,80
9583,26
9584,-33
9585,-101
9586,-156
9587,-174
9588,-184
9589,-191
9590,-193
9591,-196
9592,-200
9593,-189
9594,-165
9595,-153
9596,-137
9597,-130
9598,-132
9599,-122
9600,-99
9601,-87
9602,-92
9603,-111
9604,-134
9605,-146
9606,-139
9607,-139
9608,-167
9609,-205
9610,-212
9611,-200
9612,-191
9613,-179
9614,-167
9615,-163
9616,-172
9617,-170
9618,-151
9619,-137
9620,-134
9621,-127
9622,-127
9623,-132
9624,-130
9625,-134
9626,-137
9627,-141
9628,-163
9629,-174
9630,-167
9631,-156
9632,-148
9633,-141
9634,-141
9635,-146
9636,-151
9637,-158
9638,-148
9639,-139
9640,-144
9641,-170
9642,-212
9643,-219
9644,-191
9645,-177
9646,-177
9647,-170
9648,-172
9649,-174
9650,-151
9651,-125
9652,-118
9653,-113
9654,-101
9655,-87
9656,-80
9657,-85
9658,-96
9659,-92
9660,-80
9661,-80
9662,-73
9663,-61
9664,-59
9665,-52
9666,-14
9667,130
9668,451
9669,853
9670,945
9671,297
9672,-555
9673,-560
9674,-139
9675,-139
9676,-217
9677,-113
9678,-82
9679,-115
9680,-87
9681,-61
9682,-63
9683,-49
9684,-21
9685,-14
9686,-11
9687,-2
9688,9
9689,26
9690,52
9691,73
9692,82
9693,92
9694,106
9695,115
9696,134
9697,163
9698,179
9699,177
9700,158
9701,141
9702,132
9703,115
9704,63
9705,-11
9706,-82
9707,-125
9708,-151
9709,-172
9710,-184
9711,-198
9712,-212
9713,-205
9714,-184
9715,-172
9716,-170
9717,-208
9718,-276
9719,-297
9720,-274
9721,-264
9722,-255
9723,-245
9724,-255
9725,-255
9726,-236
9727,-224
9728,-217
9729,-212
9730,-219
9731,-229
9732,-234
9733,-238
9734,-231
9735,-219
9736,-222
9737,-224
9738,-210
9739,-215
9740,-245
9741,-248
9742,-229
9743,-229
9744,-224
9745,-200
9746,-186
9747,-179
9748,-174
9749,-172
9750,-167
9751,-151
9752,-132
9753,-125
9754,-125
9755,-120
9756,-115
9757,-108
9758,-94
9759,-87
9760,-87
9761,-82
9762,-78
9763,-78
9764,-82
9765,-96
9766,-99
9767,-85
9768,-82
9769,-85
9770,-75
9771,-63
9772,-66
9773,-59
9774,-49
9775,-52
9776,-52
9777,-42
9778,-40
9779,-35
9780,-28
9781,-30
9782,-33
9783,-33
9784,-33
9785,-26
9786,-16
9787,-33
9788,-42
9789,-26
9790,-28
9791,-42
9792,-44
9793,-70
9794,-125
9795,-148
9796,-144
9797,-153
9798,-148
9799,-132
9800,-125
9801,-56
9802,182
9803,567
9804,851
9805,567
9806,-319
9807,-770
9808,-371
9809,-130
9810,-278
9811,-255
9812,-179
9813,-226
9814,-229
9815,-179
9816,-170
9817,-163
9818,-137
9819,-134
9820,-139
9821,-118
9822,-89
9823,-73
9824,-54
9825,-37
9826,-30
9827,-11
9828,9
9829,16
9830,44
9831,80
9832,92
9833,113
9834,146
9835,160
9836,158
9837,144
9838,96
9839,37
9840,-11
9841,-61
9842,-108
9843,-146
9844,-182
9845,-203
9846,-196
9847,-182
9848,-174
9849,-167
9850,-165
9851,-165
9852,-151
9853,-134
9854,-122
9855,-115
9856,-111
9857,-108
9858,-101
9859,-92
9860,-96
9861,-115
9862,-125
9863,-153
9864,-200
9865,-198
9866,-167
9867,-167
9868,-172
9869,-167
9870,-184
9871,-208
9872,-191
9873,-172
9874,-174
9875,-163
9876,-153
9877,-156
9878,-144
9879,-130
9880,-125
9881,-118
9882,-108
9883,-108
9884,-104
9885,-94
9886,-101
9887,-111
9888,-113
9889,-111
9890,-108
9891,-104
9892,-120
9893,-137
9894,-125
9895,-115
9896,-120
9897,-118
9898,-108
9899,-104
9900,-92
9901,-87
9902,-87
9903,-85
9904,-80
9905,-75
9906,-63
9907,-61
9908,-70
9909,-87
9910,-99
9911,-108
9912,-115
9913,-115
9914,-113
9915,-122
9916,-125
9917,-115
9918,-111
9919,-104
9920,-101
9921,-108
9922,-111
9923,-104
9924,-106
9925,-118
9926,-120
9927,-120
9928,-125
9929,-113
9930,-92
9931,-85
9932,-85
9933,-87
9934,-92
9935,-101
9936,-132
9937,-144
9938,-118
9939,-130
9940,-186
9941,-177
9942,-127
9943,-125
9944,-141
9945,-158
9946,-200
9947,-219
9948,-184
9949,-160
9950,-156
9951,-141
9952,-134
9953,-85
9954,120
9955,494
9956,851
9957,777
9958,0
9959,-702
9960,-479
9961,-87
9962,-158
9963,-184
9964,-75
9965,-94
9966,-115
9967,-59
9968,-40
9969,-42
9970,-23
9971,-16
9972,-16
9973,9
9974,35
9975,40
9976,49
9977,66
9978,78
9979,104
9980,134
9981,156
9982,170
9983,191
9984,212
9985,234
9986,252
9987,267
9988,250
9989,205
9990,163
9991,127
9992,73
9993,2
9994,-63
9995,-108
9996,-137
9997,-165
9998,-179
9999,-177
10000,-174
10001,-186
10002,-212
10003,-236
10004,-219
10005,-189
10006,-189
10007,-184
10008,-167
10009,-196
10010,-248
10011,-252
10012,-238
10013,-252
10014,-262
10015,-278
10016,-328
10017,-345
10018,-314
10019,-304
10020,-314
10021,-335
10022,-380
10023,-404
10024,-378
10025,-347
10026,-326
10027,-309
10028,-304
10029,-300
10030,-283
10031,-264
10032,-243
10033,-222
10034,-215
10035,-212
10036,-203
10037,-189
10038,-170
10039,-153
10040,-146
10041,-146
10042,-141
10043,-118
10044,-101
10045,-99
10046,-85
10047,-73
10048,-85
10049,-82
10050,-56
10051,-49
10052,-56
10053,-68
10054,-82
10055,-70
10056,-52
10057,-47
10058,-35
10059,-28
10060,-40
10061,-37
10062,-16
10063,-4
10064,-4
10065,0
10066,-4
10067,-18
10068,-35
10069,-47
10070,-47
10071,-30
10072,-33
10073,-30
10074,-7
10075,7
10076,2
10077,-4
10078,-23
10079,-73
10080,-101
10081,-75
10082,-49
10083,-52
10084,-70
10085,-115
10086,-96
10087,146
10088,562
10089,867
10090,643
10091,-241
10092,-848
10093,-520
10094,-163
10095,-248
10096,-226
10097,-104
10098,-120
10099,-137
10100,-80
10101,-59
10102,-63
10103,-35
10104,-9
10105,-14
10106,2
10107,35
10108,40
10109,44
10110,52
10111,56
10112,78
10113,111
10114,127
10115,139
10116,165
10117,184
10118,203
10119,219
10120,226
10121,231
10122,217
10123,177
10124,127
10125,66
10126,-4
10127,-61
10128,-96
10129,-134
10130,-158
10131,-170
10132,-191
10133,-212
10134,-245
10135,-264
10136,-255
10137,-255
10138,-250
10139,-222
10140,-200
10141,-193
10142,-191
10143,-189
10144,-184
10145,-172
10146,-160
10147,-153
10148,-163
10149,-184
10150,-186
10151,-163
10152,-151
10153,-151
10154,-153
10155,-198
10156,-245
10157,-224
10158,-186
10159,-174
10160,-167
10161,-163
10162,-167
10163,-163
10164,-139
10165,-127
10166,-125
10167,-115
10168,-111
10169,-106
10170,-89
10171,-73
10172,-66
10173,-68
10174,-80
10175,-75
10176,-52
10177,-37
10178,-35
10179,-28
10180,-33
10181,-59
10182,-59
10183,-35
10184,-28
10185,-30
10186,-28
10187,-28
10188,-26
10189,-11
10190,11
10191,23
10192,11
10193,-11
10194,-16
10195,-2
10196,9
10197,11
10198,7
10199,-18
10200,-42
10201,-18
10202,89
10203,352
10204,744
10205,983
10206,572
10207,-340
10208,-652
10209,-205
10210,-9
10211,-113
10212,-47
10213,7
10214,-40
10215,-21
10216,18
10217,14
10218,9
10219,9
10220,21
10221,40
10222,47
10223,56
10224,68
10225,75
10226,92
10227,111
10228,127
10229,148
10230,167
10231,146
10232,122
10233,151
10234,184
10235,189
10236,196
10237,189
10238,153
10239,111
10240,56
10241,-11
10242,-70
10243,-118
10244,-174
10245,-226
10246,-250
10247,-245
10248,-229
10249,-222
10250,-226
10251,-224
10252,-210
10253,-193
10254,-179
10255,-160
10256,-156
10257,-160
10258,-156
10259,-139
10260,-127
10261,-122
10262,-118
10263,-127
10264,-146
10265,-182
10266,-215
10267,-215
10268,-212
10269,-238
10270,-252
10271,-238
10272,-226
10273,-222
10274,-212
10275,-210
10276,-231
10277,-248
10278,-241
10279,-222
10280,-208
10281,-205
10282,-215
10283,-205
10284,-184
10285,-165
10286,-156
10287,-156
10288,-165
10289,-163
10290,-141
10291,-125
10292,-118
10293,-113
10294,-120
10295,-122
10296,-108
10297,-92
10298,-87
10299,-87
10300,-113
10301,-160
10302,-167
10303,-132
10304,-108
10305,-99
10306,-99
10307,-108
10308,-130
10309,-144
10310,-134
10311,-120
10312,-118
10313,-115
10314,-106
10315,-94
10316,-49
10317,101
10318,427
10319,822
10320,900
10321,267
10322,-555
10323,-541
10324,-89
10325,-68
10326,-156
10327,-61
10328,-30
10329,-63
10330,-68
10331,-80
10332,-87
10333,-66
10334,-47
10335,-40
10336,-28
10337,-11
10338,2
10339,9
10340,16
10341,16
10342,21
10343,52
10344,82
10345,99
10346,118
10347,148
10348,172
10349,184
10350,198
10351,198
10352,177
10353,148
10354,106
10355,47
10356,-7
10357,-56
10358,-108
10359,-144
10360,-163
10361,-167
10362,-163
10363,-158
10364,-158
10365,-158
10366,-151
10367,-137
10368,-122
10369,-108
10370,-106
10371,-111
10372,-120
10373,-130
10374,-127
10375,-111
10376,-120
10377,-177
10378,-212
10379,-189
10380,-167
10381,-170
10382,-163
10383,-160
10384,-174
10385,-167
10386,-148
10387,-141
10388,-134
10389,-132
10390,-144
10391,-139
10392,-120
10393,-111
10394,-104
10395,-104
10396,-148
10397,-208
10398,-203
10399,-172
10400,-170
10401,-174
10402,-179
10403,-179
10404,-174
10405,-182
10406,-184
10407,-172
10408,-172
10409,-182
10410,-165
10411,-148
10412,-146
10413,-146
10414,-139
10415,-132
10416,-115
10417,-101
10418,-99
10419,-111
10420,-127
10421,-158
10422,-179
10423,-170
10424,-156
10425,-156
10426,-153
10427,-153
10428,-156
10429,-137
10430,-42
10431,203
10432,576
10433,825
10434,489
10435,-366
10436,-730
10437,-321
10438,-106
10439,-231
10440,-193
10441,-115
10442,-137
10443,-127
10444,-96
10445,-94
10446,-111
10447,-144
10448,-146
10449,-113
10450,-96
10451,-85
10452,-61
10453,-47
10454,-35
10455,-7
10456,18
10457,40
10458,73
10459,99
10460,118
10461,141
10462,137
10463,113
10464,120
10465,132
10466,104
10467,66
10468,14
10469,-63
10470,-130
10471,-163
10472,-198
10473,-226
10474,-231
10475,-224
10476,-215
10477,-205
10478,-198
10479,-193
10480,-184
10481,-165
10482,-148
10483,-134
10484,-130
10485,-134
10486,-132
10487,-118
10488,-106
10489,-96
10490,-92
10491,-96
10492,-104
10493,-96
10494,-87
10495,-80
10496,-78
10497,-85
10498,-96
10499,-89
10500,-82
10501,-101
10502,-111
10503,-101
10504,-106
10505,-108
10506,-92
10507,-78
10508,-73
10509,-73
10510,-80
10511,-82
10512,-66
10513,-54
10514,-52
10515,-54
10516,-92
10517,-144
10518,-134
10519,-106
10520,-106
10521,-104
10522,-99
10523,-108
10524,-108
10525,-92
10526,-68
10527,-75
10528,-118
10529,-141
10530,-132
10531,-127
10532,-141
10533,-167
10534,-184
10535,-179
10536,-170
10537,-158
10538,-141
10539,-134
10540,-122
10541,-42
10542,189
10543,565
10544,843
10545,555
10546,-297
10547,-711
10548,-314
10549,-59
10550,-167
10551,-151
10552,-89
10553,-127
10554,-144
10555,-120
10556,-111
10557,-108
10558,-101
10559,-87
10560,-75
10561,-68
10562,-56
10563,-40
10564,-35
10565,-40
10566,-30
10567,-9
10568,11
10569,35
10570,61
10571,89
10572,120
10573,141
10574,153
10575,160
10576,153
10577,134
10578,113
10579,63
10580,-9
10581,-75
10582,-120
10583,-148
10584,-165
10585,-182
10586,-191
10587,-193
10588,-189
10589,-179
10590,-163
10591,-144
10592,-139
10593,-170
10594,-200
10595,-182
10596,-158
10597,-177
10598,-205
10599,-241
10600,-267
10601,-245
10602,-217
10603,-217
10604,-212
10605,-203
10606,-210
10607,-203
10608,-179
10609,-165
10610,-158
10611,-158
10612,-170
10613,-160
10614,-137
10615,-120
10616,-118
10617,-120
10618,-125
10619,-125
10620,-106
10621,-92
10622,-87
10623,-82
10624,-87
10625,-94
10626,-75
10627,-61
10628,-68
10629,-89
10630,-111
10631,-108
10632,-87
10633,-68
10634,-49
10635,-35
10636,-44
10637,-68
10638,-70
10639,-59
10640,-56
10641,-54
10642,-47
10643,-52
10644,-61
10645,-66
10646,-49
10647,61
10648,345
10649,732
10650,877
10651,349
10652,-508
10653,-669
10654,-224
10655,-89
10656,-165
10657,-82
10658,-59
10659,-134
10660,-130
10661,-104
10662,-130
10663,-122
10664,-80
10665,-73
10666,-78
10667,-78
10668,-106
10669,-156
10670,-163
10671,-130
10672,-111
10673,-92
10674,-61
10675,-44
10676,-21
10677,9
10678,28
10679,44
10680,70
10681,78
10682,73
10683,59
10684,16
10685,-42
10686,-94
10687,-146
10688,-200
10689,-236
10690,-250
10691,-252
10692,-250
10693,-260
10694,-276
10695,-269
10696,-241
10697,-222
10698,-205
10699,-189
10700,-186
10701,-186
10702,-177
10703,-163
10704,-146
10705,-137
10706,-137
10707,-141
10708,-144
10709,-134
10710,-120
10711,-106
10712,-111
10713,-132
10714,-127
10715,-106
10716,-96
10717,-94
10718,-85
10719,-85
10720,-99
10721,-92
10722,-70
10723,-75
10724,-118
10725,-170
10726,-186
10727,-167
10728,-146
10729,-134
10730,-122
10731,-127
10732,-132
10733,-118
10734,-94
10735,-82
10736,-63
10737,-56
10738,-111
10739,-174
10740,-165
10741,-134
10742,-132
10743,-127
10744,-125
10745,-127
10746,-115
10747,-92
10748,-26
10749,182
10750,553
10751,879
10752,683
10753,-174
10754,-754
10755,-427
10756,-80
10757,-165
10758,-158
10759,-56
10760,-85
10761,-106
10762,-59
10763,-54
10764,-73
10765,-47
10766,-14
10767,-16
10768,-16
10769,-4
10770,11
10771,28
10772,47
10773,68
10774,82
10775,94
10776,111
10777,137
10778,165
10779,182
10780,186
10781,189
10782,177
10783,153
10784,120
10785,75
10786,11
10787,-52
10788,-104
10789,-170
10790,-250
10791,-283
10792,-278
10793,-283
10794,-281
10795,-269
10796,-262
10797,-248
10798,-231
10799,-219
10800,-200
10801,-191
10802,-182
10803,-172
10804,-174
10805,-167
10806,-148
10807,-141
10808,-148
10809,-151
10810,-146
10811,-141
10812,-134
10813,-130
10814,-165
10815,-217
10816,-215
10817,-184
10818,-177
10819,-170
10820,-156
10821,-163
10822,-182
10823,-170
10824,-146
10825,-137
10826,-130
10827,-127
10828,-134
10829,-127
10830,-113
10831,-101
10832,-85
10833,-78
10834,-82
10835,-66
10836,-44
10837,-42
10838,-44
10839,-54
10840,-73
10841,-70
10842,-49
10843,-35
10844,-30
10845,-33
10846,-42
10847,-14
10848,148
10849,484
10850,884
10851,950
10852,252
10853,-602
10854,-555
10855,-122
10856,-130
10857,-191
10858,-92
10859,-87
10860,-111
10861,-61
10862,-35
10863,-42
10864,-35
10865,-28
10866,-18
10867,0
10868,18
10869,33
10870,40
10871,42
10872,49
10873,56
10874,66
10875,85
10876,101
10877,113
10878,130
10879,146
10880,163
10881,167
10882,153
10883,137
10884,111
10885,52
10886,-23
10887,-80
10888,-125
10889,-167
10890,-226
10891,-286
10892,-290
10893,-264
10894,-269
10895,-278
10896,-276
10897,-283
10898,-293
10899,-283
10900,-269
10901,-257
10902,-248
10903,-248
10904,-243
10905,-229
10906,-226
10907,-222
10908,-208
10909,-205
10910,-210
10911,-205
10912,-196
10913,-193
10914,-182
10915,-174
10916,-182
10917,-193
10918,-200
10919,-189
10920,-191
10921,-226
10922,-238
10923,-219
10924,-212
10925,-205
10926,-186
10927,-172
10928,-170
10929,-174
10930,-177
10931,-160
10932,-132
10933,-108
10934,-99
10935,-99
10936,-96
10937,-92
10938,-92
10939,-92
10940,-87
10941,-89
10942,-96
10943,-82
10944,-63
10945,-59
10946,-49
10947,9
10948,198
10949,548
10950,862
10951,678
10952,-148
10953,-709
10954,-373
10955,-26
10956,-122
10957,-130
10958,-23
10959,-54
10960,-125
10961,-127
10962,-96
10963,-78
10964,-66
10965,-52
10966,-52
10967,-49
10968,-28
10969,-2
10970,14
10971,30
10972,42
10973,54
10974,75
10975,106
10976,134
10977,158
10978,174
10979,184
10980,189
10981,182
10982,160
10983,130
10984,80
10985,4
10986,-85
10987,-160
10988,-193
10989,-217
10990,-248
10991,-260
10992,-257
10993,-248
10994,-236
10995,-224
10996,-217
10997,-205
10998,-198
10999,-191
11000,-174
11001,-160
11002,-158
11003,-148
11004,-141
11005,-153
11006,-167
11007,-172
11008,-182
11009,-196
11010,-203
11011,-205
11012,-208
11013,-224
11014,-243
11015,-236
11016,-219
11017,-222
11018,-224
11019,-212
11020,-208
11021,-200
11022,-186
11023,-182
11024,-184
11025,-179
11026,-172
11027,-167
11028,-153
11029,-165
11030,-212
11031,-236
11032,-210
11033,-191
11034,-186
11035,-174
11036,-170
11037,-177
11038,-174
11039,-153
11040,-127
11041,-108
11042,-99
11043,-99
11044,-101
11045,-115
11046,-137
11047,-134
11048,-120
11049,-125
11050,-127
11051,-132
11052,-156
11053,-160
11054,-125
11055,-47
11056,177
11057,565
11058,832
11059,505
11060,-345
11061,-702
11062,-278
11063,-47
11064,-170
11065,-125
11066,-35
11067,-70
11068,-85
11069,-47
11070,-30
11071,-26
11072,-4
11073,7
11074,0
11075,4
11076,28
11077,28
11078,23
11079,37
11080,49
11081,54
11082,82
11083,118
11084,144
11085,165
11086,182
11087,189
11088,200
11089,203
11090,182
11091,151
11092,108
11093,44
11094,-23
11095,-70
11096,-108
11097,-141
11098,-172
11099,-189
11100,-193
11101,-186
11102,-172
11103,-163
11104,-163
11105,-179
11106,-217
11107,-234
11108,-208
11109,-210
11110,-234
11111,-231
11112,-231
11113,-250
11114,-255
11115,-255
11116,-260
11117,-281
11118,-316
11119,-323
11120,-297
11121,-288
11122,-295
11123,-283
11124,-264
11125,-262
11126,-257
11127,-241
11128,-231
11129,-226
11130,-212
11131,-205
11132,-205
11133,-196
11134,-189
11135,-182
11136,-170
11137,-163
11138,-160
11139,-153
11140,-148
11141,-158
11142,-165
11143,-156
11144,-151
11145,-151
11146,-141
11147,-127
11148,-118
11149,-108
11150,-104
11151,-104
11152,-99
11153,-92
11154,-80
11155,-75
11156,-78
11157,-78
11158,-70
11159,-56
11160,-35
11161,-18
11162,-14
11163,-28
11164,-47
11165,-47
11166,-37
11167,-30
11168,-21
11169,-26
11170,-40
11171,-35
11172,-14
11173,42
11174,236
11175,607
11176,926
11177,716
11178,-127
11179,-664
11180,-323
11181,-16
11182,-141
11183,-167
11184,-75
11185,-85
11186,-87
11187,-52
11188,-87
11189,-144
11190,-127
11191,-108
11192,-115
11193,-94
11194,-80
11195,-80
11196,-59
11197,-35
11198,-21
11199,2
11200,21
11201,33
11202,54
11203,87
11204,111
11205,113
11206,106
11207,108
11208,115
11209,106
11210,85
11211,44
11212,-23
11213,-101
11214,-163
11215,-205
11216,-250
11217,-278
11218,-281
11219,-278
11220,-281
11221,-269
11222,-250
11223,-248
11224,-245
11225,-226
11226,-215
11227,-210
11228,-198
11229,-189
11230,-184
11231,-170
11232,-167
11233,-179
11234,-170
11235,-156
11236,-163
11237,-179
11238,-189
11239,-196
11240,-186
11241,-174
11242,-167
11243,-158
11244,-158
11245,-163
11246,-148
11247,-139
11248,-174
11249,-210
11250,-196
11251,-189
11252,-238
11253,-260
11254,-234
11255,-217
11256,-210
11257,-196
11258,-189
11259,-186
11260,-179
11261,-158
11262,-139
11263,-130
11264,-134
11265,-144
11266,-137
11267,-118
11268,-104
11269,-113
11270,-132
11271,-134
11272,-125
11273,-118
11274,-111
11275,-94
11276,-78
11277,-75
11278,-78
11279,-56
11280,-37
11281,-37
11282,-42
11283,-56
11284,-70
11285,-56
11286,-33
11287,-30
11288,-26
11289,-23
11290,-47
11291,-18
11292,179
11293,557
11294,924
11295,817
11296,-9
11297,-709
11298,-468
11299,-70
11300,-122
11301,-144
11302,-63
11303,-89
11304,-89
11305,-40
11306,-35
11307,-37
11308,-23
11309,-18
11310,-9
11311,9
11312,14
11313,2
11314,-28
11315,-73
11316,-75
11317,-37
11318,-16
11319,-2
11320,9
11321,-4
11322,-28
11323,-14
11324,23
11325,40
11326,42
11327,30
11328,2
11329,-33
11330,-75
11331,-141
11332,-203
11333,-245
11334,-286
11335,-312
11336,-307
11337,-300
11338,-288
11339,-267
11340,-260
11341,-255
11342,-229
11343,-203
11344,-196
11345,-189
11346,-174
11347,-170
11348,-158
11349,-146
11350,-144
11351,-137
11352,-130
11353,-137
11354,-132
11355,-118
11356,-118
11357,-118
11358,-111
11359,-106
11360,-108
11361,-104
11362,-94
11363,-92
11364,-89
11365,-92
11366,-99
11367,-96
11368,-92
11369,-92
11370,-82
11371,-68
11372,-66
11373,-73
11374,-73
11375,-63
11376,-52
11377,-42
11378,-40
11379,-59
11380,-92
11381,-96
11382,-73
11383,-63
11384,-68
11385,-80
11386,-92
11387,-80
11388,-63
11389,-63
11390,-80
11391,-94
11392,-92
11393,-85
11394,-78
11395,-61
11396,-52
11397,-70
11398,-111
11399,-118
11400,-92
11401,-80
11402,-80
11403,-92
11404,-146
11405,-174
11406,-120
11407,2
11408,276
11409,695
11410,912
11411,427
11412,-496
11413,-747
11414,-295
11415,-151
11416,-274
11417,-208
11418,-137
11419,-165
11420,-144
11421,-108
11422,-120
11423,-125
11424,-104
11425,-78
11426,-63
11427,-54
11428,-42
11429,-37
11430,-35
11431,-21
11432,9
11433,30
11434,44
11435,59
11436,80
11437,104
11438,132
11439,148
11440,156
11441,156
11442,141
11443,118
11444,73
11445,-14
11446,-96
11447,-137
11448,-172
11449,-208
11450,-215
11451,-215
11452,-219
11453,-212
11454,-203
11455,-198
11456,-184
11457,-167
11458,-158
11459,-144
11460,-127
11461,-127
11462,-137
11463,-134
11464,-125
11465,-115
11466,-115
11467,-148
11468,-193
11469,-191
11470,-172
11471,-170
11472,-160
11473,-153
11474,-158
11475,-153
11476,-146
11477,-139
11478,-127
11479,-118
11480,-118
11481,-118
11482,-113
11483,-104
11484,-92
11485,-82
11486,-87
11487,-92
11488,-87
11489,-75
11490,-66
11491,-56
11492,-49
11493,-59
11494,-82
11495,-82
11496,-63
11497,-63
11498,-80
11499,-94
11500,-99
11501,-94
11502,-87
11503,-80
11504,-75
11505,-82
11506,-92
11507,-87
11508,-78
11509,-75
11510,-75
11511,-96
11512,-120
11513,-101
11514,-70
11515,-68
11516,-70
11517,-82
11518,-101
11519,-104
11520,-101
11521,-106
11522,-111
11523,-122
11524,-146
11525,-144
11526,-30
11527,276
11528,692
11529,848
11530,288
11531,-598
11532,-702
11533,-219
11534,-137
11535,-252
11536,-172
11537,-130
11538,-165
11539,-132
11540,-92
11541,-96
11542,-99
11543,-122
11544,-158
11545,-139
11546,-96
11547,-87
11548,-80
11549,-61
11550,-44
11551,-23
11552,7
11553,35
11554,54
11555,78
11556,101
11557,113
11558,113
11559,120
11560,127
11561,120
11562,96
11563,61
11564,16
11565,-37
11566,-94
11567,-134
11568,-158
11569,-182
11570,-189
11571,-184
11572,-184
11573,-177
11574,-165
11575,-163
11576,-177
11577,-200
11578,-208
11579,-182
11580,-160
11581,-158
11582,-153
11583,-139
11584,-134
11585,-125
11586,-111
11587,-111
11588,-118
11589,-127
11590,-146
11591,-151
11592,-132
11593,-125
11594,-134
11595,-134
11596,-127
11597,-120
11598,-111
11599,-101
11600,-101
11601,-106
11602,-104
11603,-94
11604,-82
11605,-73
11606,-73
11607,-80
11608,-80
11609,-70
11610,-59
11611,-54
11612,-49
11613,-56
11614,-68
11615,-66
11616,-70
11617,-80
11618,-80
11619,-115
11620,-177
11621,-186
11622,-172
11623,-177
11624,-167
11625,-160
11626,-172
11627,-167
11628,-146
11629,-137
11630,-137
11631,-134
11632,-130
11633,-115
11634,-94
11635,-78
11636,-66
11637,-68
11638,-99
11639,-132
11640,-134
11641,-148
11642,-196
11643,-215
11644,-205
11645,-205
11646,-203
11647,-151
11648,4
11649,333
11650,711
11651,758
11652,108
11653,-685
11654,-633
11655,-191
11656,-198
11657,-290
11658,-184
11659,-146
11660,-172
11661,-139
11662,-115
11663,-122
11664,-111
11665,-85
11666,-66
11667,-52
11668,-44
11669,-30
11670,-16
11671,0
11672,23
11673,44
11674,59
11675,80
11676,106
11677,130
11678,153
11679,179
11680,191
11681,203
11682,212
11683,198
11684,170
11685,125
11686,44
11687,-26
11688,-78
11689,-165
11690,-243
11691,-243
11692,-236
11693,-245
11694,-234
11695,-222
11696,-219
11697,-205
11698,-189
11699,-177
11700,-160
11701,-153
11702,-153
11703,-141
11704,-132
11705,-127
11706,-125
11707,-146
11708,-179
11709,-182
11710,-165
11711,-158
11712,-151
11713,-137
11714,-134
11715,-144
11716,-141
11717,-141
11718,-153
11719,-153
11720,-144
11721,-144
11722,-144
11723,-132
11724,-120
11725,-111
11726,-106
11727,-111
11728,-113
11729,-99
11730,-87
11731,-78
11732,-70
11733,-78
11734,-104
11735,-115
11736,-104
11737,-89
11738,-85
11739,-89
11740,-104
11741,-99
11742,-82
11743,-80
11744,-78
11745,-73
11746,-80
11747,-82
11748,-75
11749,-73
11750,-85
11751,-94
11752,-101
11753,-104
11754,-92
11755,-73
11756,-78
11757,-92
11758,-111
11759,-160
11760,-198
11761,-189
11762,-177
11763,-189
11764,-189
11765,-186
11766,-189
11767,-174
11768,-151
11769,-139
11770,-99
11771,82
11772,439
11773,780
11774,690
11775,-82
11776,-787
11777,-598
11778,-193
11779,-222
11780,-231
11781,-130
11782,-163
11783,-189
11784,-130
11785,-118
11786,-130
11787,-99
11788,-70
11789,-59
11790,-44
11791,-35
11792,-16
11793,9
11794,16
11795,35
11796,66
11797,75
11798,94
11799,132
11800,151
11801,165
11802,193
11803,205
11804,210
11805,222
11806,215
11807,189
11808,160
11809,101
11810,26
11811,-33
11812,-78
11813,-118
11814,-151
11815,-170
11816,-174
11817,-174
11818,-165
11819,-153
11820,-137
11821,-118
11822,-115
11823,-115
11824,-106
11825,-89
11826,-78
11827,-80
11828,-80
11829,-82
11830,-85
11831,-80
11832,-73
11833,-63
11834,-80
11835,-139
11836,-174
11837,-148
11838,-139
11839,-179
11840,-210
11841,-234
11842,-269
11843,-262
11844,-222
11845,-212
11846,-231
11847,-241
11848,-238
11849,-229
11850,-224
11851,-224
11852,-215
11853,-198
11854,-198
11855,-203
11856,-186
11857,-167
11858,-158
11859,-153
11860,-158
11861,-151
11862,-127
11863,-120
11864,-120
11865,-101
11866,-104
11867,-122
11868,-111
11869,-82
11870,-75
11871,-75
11872,-85
11873,-104
11874,-111
11875,-106
11876,-96
11877,-108
11878,-153
11879,-186
11880,-165
11881,-144
11882,-144
11883,-134
11884,-127
11885,-125
11886,-106
11887,0
11888,290
11889,706
11890,919
11891,442
11892,-487
11893,-737
11894,-264
11895,-92
11896,-186
11897,-94
11898,-30
11899,-75
11900,-52
11901,-11
11902,-18
11903,-14
11904,-2
11905,-21
11906,-28
11907,0
11908,16
11909,11
11910,-4
11911,-47
11912,-52
11913,-9
11914,11
11915,23
11916,61
11917,87
11918,96
11919,115
11920,139
11921,146
11922,146
11923,134
11924,101
11925,47
11926,-16
11927,-63
11928,-96
11929,-132
11930,-163
11931,-177
11932,-177
11933,-172
11934,-160
11935,-141
11936,-130
11937,-132
11938,-125
11939,-108
11940,-99
11941,-92
11942,-104
11943,-122
11944,-122
11945,-104
11946,-96
11947,-87
11948,-78
11949,-92
11950,-108
11951,-96
11952,-78
11953,-73
11954,-73
11955,-78
11956,-85
11957,-78
11958,-63
11959,-59
11960,-49
11961,-49
11962,-63
11963,-63
11964,-47
11965,-37
11966,-35
11967,-37
11968,-59
11969,-80
11970,-87
11971,-106
11972,-132
11973,-132
11974,-139
11975,-158
11976,-141
11977,-120
11978,-120
11979,-125
11980,-156
11981,-200
11982,-196
11983,-153
11984,-139
11985,-137
11986,-130
11987,-139
11988,-151
11989,-139
11990,-127
11991,-139
11992,-151
11993,-160
11994,-174
11995,-172
11996,-139
11997,-33
11998,241
11999,647
12000,877
12001,420
12002,-489
12003,-737
12004,-278
12005,-125
12006,-252
12007,-189
12008,-115
12009,-146
12010,-137
12011,-99
12012,-94
12013,-92
12014,-66
12015,-52
12016,-49
12017,-35
12018,-16
12019,-9
12020,7
12021,33
12022,47
12023,66
12024,89
12025,104
12026,120
12027,151
12028,172
12029,184
12030,198
12031,196
12032,177
12033,158
12034,127
12035,78
12036,11
12037,-78
12038,-165
12039,-205
12040,-215
12041,-219
12042,-217
12043,-210
12044,-208
12045,-208
12046,-198
12047,-182
12048,-163
12049,-146
12050,-141
12051,-144
12052,-139
12053,-125
12054,-113
12055,-106
12056,-122
12057,-170
12058,-198
12059,-174
12060,-156
12061,-158
12062,-153
12063,-156
12064,-163
12065,-151
12066,-134
12067,-127
12068,-118
12069,-115
12070,-137
12071,-148
12072,-130
12073,-113
12074,-111
12075,-108
12076,-113
12077,-111
12078,-96
12079,-82
12080,-75
12081,-75
12082,-82
12083,-85
12084,-68
12085,-59
12086,-56
12087,-54
12088,-63
12089,-78
12090,-78
12091,-73
12092,-63
12093,-54
12094,-59
12095,-66
12096,-63
12097,-66
12098,-73
12099,-75
12100,-70
12101,-75
12102,-101
12103,-122
12104,-108
12105,-89
12106,-44
12107,139
12108,498
12109,843
12110,732
12111,-63
12112,-716
12113,-458
12114,-87
12115,-189
12116,-234
12117,-127
12118,-139
12119,-165
12120,-130
12121,-118
12122,-118
12123,-101
12124,-92
12125,-92
12126,-108
12127,-141
12128,-134
12129,-96
12130,-82
12131,-68
12132,-40
12133,-28
12134,-26
12135,-11
12136,18
12137,49
12138,75
12139,92
12140,99
12141,101
12142,89
12143,66
12144,33
12145,-21
12146,-80
12147,-125
12148,-160
12149,-184
12150,-191
12151,-193
12152,-198
12153,-196
12154,-184
12155,-172
12156,-156
12157,-139
12158,-134
12159,-132
12160,-125
12161,-113
12162,-101
12163,-92
12164,-89
12165,-101
12166,-122
12167,-144
12168,-167
12169,-182
12170,-172
12171,-172
12172,-179
12173,-167
12174,-148
12175,-144
12176,-139
12177,-141
12178,-148
12179,-137
12180,-118
12181,-108
12182,-101
12183,-101
12184,-111
12185,-106
12186,-87
12187,-78
12188,-73
12189,-73
12190,-80
12191,-78
12192,-61
12193,-54
12194,-49
12195,-54
12196,-101
12197,-158
12198,-158
12199,-144
12200,-141
12201,-139
12202,-141
12203,-137
12204,-111
12205,-89
12206,-75
12207,-63
12208,-70
12209,-89
12210,-94
12211,-82
12212,-70
12213,-82
12214,-104
12215,-104
12216,-99
12217,-92
12218,-33
12219,156
12220,515
12221,867
12222,761
12223,-35
12224,-678
12225,-411
12226,-44
12227,-139
12228,-170
12229,-68
12230,-94
12231,-132
12232,-99
12233,-118
12234,-163
12235,-153
12236,-132
12237,-134
12238,-144
12239,-141
12240,-127
12241,-115
12242,-99
12243,-73
12244,-54
12245,-37
12246,-11
12247,11
12248,35
12249,63
12250,85
12251,101
12252,118
12253,115
12254,99
12255,75
12256,40
12257,-11
12258,-68
12259,-120
12260,-163
12261,-198
12262,-238
12263,-257
12264,-243
12265,-229
12266,-234
12267,-234
12268,-217
12269,-189
12270,-170
12271,-174
12272,-205
12273,-241
12274,-234
12275,-205
12276,-196
12277,-189
12278,-179
12279,-182
12280,-184
12281,-174
12282,-153
12283,-144
12284,-144
12285,-146
12286,-146
12287,-137
12288,-120
12289,-111
12290,-111
12291,-118
12292,-122
12293,-113
12294,-108
12295,-118
12296,-113
12297,-108
12298,-141
12299,-174
12300,-151
12301,-122
12302,-125
12303,-122
12304,-120
12305,-118
12306,-106
12307,-96
12308,-89
12309,-85
12310,-92
12311,-94
12312,-68
12313,-49
12314,-42
12315,-23
12316,-26
12317,-49
12318,-52
12319,-40
12320,-35
12321,-30
12322,-35
12323,-42
12324,-30
12325,-21
12326,-33
12327,0
12328,198
12329,567
12330,874
12331,692
12332,-122
12333,-737
12334,-472
12335,-111
12336,-160
12337,-151
12338,-42
12339,-63
12340,-87
12341,-63
12342,-94
12343,-132
12344,-101
12345,-73
12346,-78
12347,-63
12348,-40
12349,-30
12350,-14
12351,2
12352,-4
12353,-7
12354,14
12355,23
12356,23
12357,47
12358,61
12359,59
12360,68
12361,78
12362,73
12363,63
12364,16
12365,-66
12366,-125
12367,-172
12368,-231
12369,-267
12370,-288
12371,-300
12372,-297
12373,-295
12374,-286
12375,-267
12376,-252
12377,-236
12378,-215
12379,-203
12380,-198
12381,-189
12382,-177
12383,-167
12384,-156
12385,-141
12386,-139
12387,-148
12388,-148
12389,-141
12390,-148
12391,-156
12392,-153
12393,-156
12394,-165
12395,-153
12396,-134
12397,-125
12398,-115
12399,-120
12400,-130
12401,-115
12402,-92
12403,-87
12404,-82
12405,-80
12406,-94
12407,-87
12408,-63
12409,-54
12410,-52
12411,-44
12412,-52
12413,-54
12414,-40
12415,-33
12416,-30
12417,-42
12418,-89
12419,-122
12420,-96
12421,-70
12422,-80
12423,-92
12424,-96
12425,-108
12426,-111
12427,-96
12428,-78
12429,-68
12430,-73
12431,-80
12432,-70
12433,-52
12434,-11
12435,130
12436,444
12437,827
12438,874
12439,189
12440,-638
12441,-586
12442,-130
12443,-108
12444,-172
12445,-66
12446,-44
12447,-82
12448,-52
12449,-28
12450,-42
12451,-35
12452,-7
12453,-4
12454,-21
12455,-28
12456,-16
12457,-4
12458,-14
12459,-33
12460,-21
12461,7
12462,7
12463,4
12464,30
12465,40
12466,40
12467,56
12468,70
12469,61
12470,47
12471,28
12472,-11
12473,-63
12474,-113
12475,-160
12476,-200
12477,-224
12478,-241
12479,-241
12480,-231
12481,-226
12482,-224
12483,-212
12484,-203
12485,-196
12486,-191
12487,-198
12488,-196
12489,-186
12490,-179
12491,-170
12492,-153
12493,-156
12494,-198
12495,-238
12496,-226
12497,-200
12498,-196
12499,-191
12500,-182
12501,-186
12502,-189
12503,-172
12504,-156
12505,-144
12506,-137
12507,-141
12508,-144
12509,-130
12510,-113
12511,-104
12512,-99
12513,-104
12514,-108
12515,-99
12516,-82
12517,-75
12518,-87
12519,-108
12520,-120
12521,-106
12522,-89
12523,-94
12524,-120
12525,-146
12526,-146
12527,-130
12528,-122
12529,-118
12530,-106
12531,-87
12532,-82
12533,-80
12534,-59
12535,-42
12536,-44
12537,-54
12538,-68
12539,-75
12540,-61
12541,-47
12542,-37
12543,-35
12544,-40
12545,-40
12546,28
12547,241
12548,605
12549,912
12550,687
12551,-182
12552,-737
12553,-378
12554,-40
12555,-156
12556,-167
12557,-70
12558,-94
12559,-106
12560,-56
12561,-49
12562,-61
12563,-63
12564,-96
12565,-122
12566,-94
12567,-66
12568,-66
12569,-49
12570,-30
12571,-30
12572,-28
12573,-9
12574,-4
12575,2
12576,26
12577,44
12578,63
12579,82
12580,85
12581,80
12582,54
12583,4
12584,-42
12585,-85
12586,-144
12587,-189
12588,-215
12589,-264
12590,-309
12591,-307
12592,-290
12593,-286
12594,-269
12595,-250
12596,-245
12597,-236
