,ECG,TIME
0,0.0,1609287715.591672
1,836.4692993164062,1609287715.649701
2,708.6843872070312,1609287715.64971
3,613.3541870117188,1609287715.649716
4,744.2236328125,1609287715.649722
5,837.7880859375,1609287715.649728
6,705.64453125,1609287715.649734
7,604.2123413085938,1609287715.64974
8,689.2383422851562,1609287715.649746
9,808.9319458007812,1609287715.649752
10,743.32958984375,1609287715.649758
11,614.1588745117188,1609287715.649764
12,682.6445922851562,1609287715.64977
13,834.7482299804688,1609287715.649776
14,797.2420043945312,1609287715.649782
15,679.9400634765625,1609287715.649788
16,715.6804809570312,1609287715.70981
17,890.9628295898438,1609287715.709826
18,900.6188354492188,1609287715.709833
19,782.6016235351562,1609287715.709839
20,770.21875,1609287715.709845
21,921.9200439453125,1609287715.709851
22,974.468994140625,1609287715.709857
23,841.9454956054688,1609287715.709863
24,786.3790283203125,1609287715.709894
25,944.875244140625,1609287715.709901
26,1041.9488525390625,1609287715.709906
27,921.2047729492188,1609287715.709913
28,834.9717407226562,1609287715.709919
29,925.943359375,1609287715.709925
30,1030.7730712890625,1609287715.709931
31,933.63232421875,1609287715.769277
32,828.89208984375,1609287715.769293
33,908.1737060546875,1609287715.7693
34,1044.5640869140625,1609287715.769306
35,989.2658081054688,1609287715.769312
36,843.3089599609375,1609287715.769318
37,903.3680419921875,1609287715.769324
38,1086.65234375,1609287715.76933
39,1034.1033935546875,1609287715.769336
40,860.0504150390625,1609287715.769342
41,886.5372314453125,1609287715.769347
42,1064.2783203125,1609287715.769354
43,1092.5308837890625,1609287715.76936
44,925.33984375,1609287715.769366
45,888.3477172851562,1609287715.769372
46,1072.97314453125,1609287715.829047
47,1104.489013671875,1609287715.829084
48,979.5427856445312,1609287715.82909
49,933.386474609375,1609287715.829096
50,1060.0985107421875,1609287715.829102
51,1150.176025390625,1609287715.829108
52,1055.9857177734375,1609287715.829114
53,931.4418334960938,1609287715.82912
54,1013.7186279296875,1609287715.829126
55,1166.962158203125,1609287715.829132
56,1089.4462890625,1609287715.829138
57,958.4874877929688,1609287715.829144
58,1056.2093505859375,1609287715.82915
59,1205.653076171875,1609287715.829156
60,1140.4083251953125,1609287715.829162
61,992.1939086914062,1609287715.888695
62,1053.4376220703125,1609287715.888712
63,1215.1749267578125,1609287715.888719
64,1178.450927734375,1609287715.888726
65,1018.4124755859375,1609287715.888733
66,1022.99462890625,1609287715.88874
67,1207.2176513671875,1609287715.888747
68,1244.6121826171875,1609287715.888754
69,1068.927490234375,1609287715.888761
70,1012.7575073242188,1609287715.888794
71,1189.51513671875,1609287715.888801
72,1245.8638916015625,1609287715.888809
73,1122.3033447265625,1609287715.88882
74,1039.8477783203125,1609287715.888826
75,1185.8270263671875,1609287715.888833
76,1273.0435791015625,1609287715.949113
77,1130.0147705078125,1609287715.94913
78,1029.1636962890625,1609287715.949136
79,1137.63671875,1609287715.949142
80,1278.117431640625,1609287715.949148
81,1211.755126953125,1609287715.949155
82,1070.15673828125,1609287715.949161
83,1137.592041015625,1609287715.949167
84,1279.3468017578125,1609287715.949173
85,1240.7005615234375,1609287715.949179
86,1078.717529296875,1609287715.949185
87,1101.0692138671875,1609287715.949191
88,1274.47412109375,1609287715.949198
89,1282.498291015625,1609287715.949204
90,1118.7271728515625,1609287715.94921
91,1103.103271484375,1609287716.009558
92,1285.1805419921875,1609287716.009575
93,1299.3739013671875,1609287716.009581
94,1126.2149658203125,1609287716.009609
95,1062.4454345703125,1609287716.009615
96,1210.70458984375,1609287716.009621
97,1278.27392578125,1609287716.009627
98,1170.6502685546875,1609287716.009633
99,1096.2412109375,1609287716.009639
100,1217.231201171875,1609287716.009645
101,1323.8714599609375,1609287716.009651
102,1224.2049560546875,1609287716.009657
103,1089.15576171875,1609287716.009663
104,1194.8348388671875,1609287716.009669
105,1369.02197265625,1609287716.009675
106,1302.7266845703125,1609287716.068418
107,1125.276123046875,1609287716.068436
108,1160.9495849609375,1609287716.068444
109,1310.05810546875,1609287716.068451
110,1248.1436767578125,1609287716.068459
111,1117.3189697265625,1609287716.068466
112,1128.2265625,1609287716.068473
113,1289.0697021484375,1609287716.068481
114,1289.4273681640625,1609287716.068488
115,1139.0001220703125,1609287716.068495
116,1096.5318603515625,1609287716.068503
117,1259.833740234375,1609287716.068527
118,1307.2640380859375,1609287716.068534
119,1180.216796875,1609287716.06854
120,1119.6658935546875,1609287716.068546
121,1250.8035888671875,1609287716.128111
122,1350.42529296875,1609287716.12812
123,1240.119384765625,1609287716.128124
124,1136.988525390625,1609287716.128128
125,1249.931884765625,1609287716.128131
126,1351.2969970703125,1609287716.128135
127,1255.0057373046875,1609287716.128139
128,1123.53271484375,1609287716.128142
129,1188.6209716796875,1609287716.128146
130,1354.7391357421875,1609287716.12815
131,1294.613037109375,1609287716.128154
132,1140.8330078125,1609287716.128158
133,1161.4189453125,1609287716.128162
134,1306.43701171875,1609287716.128166
135,1227.580078125,1609287716.12817
136,941.880126953125,1609287716.188789
137,781.8416137695312,1609287716.188806
138,701.75537109375,1609287716.188812
139,456.6684875488281,1609287716.188818
140,64.10479736328125,1609287716.188845
141,-178.47866821289062,1609287716.188851
142,-105.20965576171875,1609287716.188857
143,183.17254638671875,1609287716.188863
144,721.3801879882812,1609287716.188869
145,1461.6029052734375,1609287716.188875
146,1852.825439453125,1609287716.188881
147,1842.275390625,1609287716.188887
148,1575.552001953125,1609287716.188893
149,1349.2406005859375,1609287716.188899
150,1384.60107421875,1609287716.188906
151,1489.4754638671875,1609287716.248712
152,1350.134765625,1609287716.248726
153,1188.4197998046875,1609287716.248732
154,1228.027099609375,1609287716.248738
155,1381.1812744140625,1609287716.248744
156,1352.3922119140625,1609287716.24875
157,1178.249755859375,1609287716.248756
158,1192.3760986328125,1609287716.248762
159,1367.3902587890625,1609287716.248768
160,1360.7518310546875,1609287716.248774
161,1176.171142578125,1609287716.24878
162,1173.466552734375,1609287716.248786
163,1336.9248046875,1609287716.248807
164,1348.167724609375,1609287716.248813
165,1182.4967041015625,1609287716.248819
166,1135.33447265625,1609287716.309029
167,1285.27001953125,1609287716.309038
168,1348.6595458984375,1609287716.309043
169,1208.357666015625,1609287716.309047
170,1132.093505859375,1609287716.309051
171,1254.916259765625,1609287716.309055
172,1365.4903564453125,1609287716.309059
173,1242.421630859375,1609287716.309063
174,1113.83203125,1609287716.309067
175,1187.50341796875,1609287716.309071
176,1303.5760498046875,1609287716.309075
177,1211.039794921875,1609287716.30908
178,1087.3228759765625,1609287716.309084
179,1144.2528076171875,1609287716.309088
180,1280.218505859375,1609287716.309092
181,1230.08349609375,1609287716.368223
182,1066.312255859375,1609287716.36824
183,1088.9322509765625,1609287716.368246
184,1239.3818359375,1609287716.368252
185,1258.8948974609375,1609287716.368258
186,1091.703857421875,1609287716.368264
187,1063.5853271484375,1609287716.368292
188,1226.5743408203125,1609287716.368298
189,1250.4459228515625,1609287716.368304
190,1079.902099609375,1609287716.36831
191,1011.39404296875,1609287716.368316
192,1149.12548828125,1609287716.368322
193,1260.7054443359375,1609287716.368328
194,1146.465576171875,1609287716.368334
195,1043.8487548828125,1609287716.36834
196,1161.2401123046875,1609287716.428494
197,1292.0201416015625,1609287716.428511
198,1188.91162109375,1609287716.428517
199,1067.608642578125,1609287716.428523
200,1162.961181640625,1609287716.428529
201,1291.2379150390625,1609287716.428536
202,1190.968017578125,1609287716.428542
203,1030.19189453125,1609287716.428548
204,1084.35009765625,1609287716.428554
205,1250.1107177734375,1609287716.42856
206,1214.549072265625,1609287716.428566
207,1078.114013671875,1609287716.428572
208,1116.849609375,1609287716.428578
209,1300.9609375,1609287716.428585
210,1323.983154296875,1609287716.428613
211,1169.4879150390625,1609287716.488674
212,1126.997314453125,1609287716.488705
213,1300.0220947265625,1609287716.488712
214,1379.2813720703125,1609287716.488719
215,1269.6014404296875,1609287716.488726
216,1223.042724609375,1609287716.488733
217,1355.5885009765625,1609287716.488739
218,1465.4697265625,1609287716.488746
219,1344.5467529296875,1609287716.488753
220,1224.49560546875,1609287716.48876
221,1352.3251953125,1609287716.488767
222,1491.95654296875,1609287716.488774
223,1381.8294677734375,1609287716.488781
224,1236.7890625,1609287716.488788
225,1298.1668701171875,1609287716.488795
226,1455.8585205078125,1609287716.549038
227,1416.944091796875,1609287716.549062
228,1275.2340087890625,1609287716.549069
229,1316.4730224609375,1609287716.549076
230,1468.5318603515625,1609287716.549083
231,1469.224853515625,1609287716.54909
232,1293.24951171875,1609287716.549097
233,1265.8463134765625,1609287716.549131
234,1446.8953857421875,1609287716.549138
235,1468.4871826171875,1609287716.549145
236,1340.590576171875,1609287716.549151
237,1272.46240234375,1609287716.549159
238,1437.2618408203125,1609287716.549166
239,1520.700927734375,1609287716.549173
240,1382.052978515625,1609287716.54918
241,1277.2904052734375,1609287716.607831
242,1398.950927734375,1609287716.607851
243,1525.6629638671875,1609287716.607859
244,1417.6593017578125,1609287716.607867
245,1295.7305908203125,1609287716.607874
246,1413.1666259765625,1609287716.607882
247,1558.564697265625,1609287716.60789
248,1504.33935546875,1609287716.607897
249,1348.4583740234375,1609287716.607905
250,1373.156982421875,1609287716.607912
251,1542.0020751953125,1609287716.60792
252,1509.94970703125,1609287716.607928
253,1372.061767578125,1609287716.607936
254,1393.8770751953125,1609287716.607944
255,1542.6949462890625,1609287716.607952
256,1565.963134765625,1609287716.667781
257,1415.156005859375,1609287716.667791
258,1401.1861572265625,1609287716.667795
259,1564.7337646484375,1609287716.667798
260,1597.8814697265625,1609287716.667802
261,1437.5970458984375,1609287716.667805
262,1375.5262451171875,1609287716.667809
263,1544.3489990234375,1609287716.667812
264,1615.449951171875,1609287716.667816
265,1462.9439697265625,1609287716.667819
266,1383.260009765625,1609287716.667822
267,1508.8321533203125,1609287716.667826
268,1643.76953125,1609287716.667829
269,1533.2625732421875,1609287716.667833
270,1379.61669921875,1609287716.667836
271,1477.718505859375,1609287716.728312
272,1625.5753173828125,1609287716.728329
273,1571.975830078125,1609287716.728335
274,1434.4678955078125,1609287716.728341
275,1472.3316650390625,1609287716.728347
276,1635.5888671875,1609287716.728353
277,1598.7978515625,1609287716.728359
278,1437.820556640625,1609287716.728365
279,1462.56396484375,1609287716.728371
280,1628.3021240234375,1609287716.728398
281,1639.58984375,1609287716.728404
282,1471.705810546875,1609287716.728411
283,1423.739013671875,1609287716.728417
284,1588.51611328125,1609287716.728423
285,1636.3935546875,1609287716.728429
286,1484.803955078125,1609287716.788553
287,1431.1151123046875,1609287716.788572
288,1576.8037109375,1609287716.78858
289,1667.2388916015625,1609287716.788587
290,1519.6280517578125,1609287716.788594
291,1417.39111328125,1609287716.788601
292,1529.574462890625,1609287716.788608
293,1671.709228515625,1609287716.788615
294,1594.1710205078125,1609287716.788622
295,1448.8624267578125,1609287716.788629
296,1515.1800537109375,1609287716.788636
297,1676.2913818359375,1609287716.788643
298,1614.08642578125,1609287716.78865
299,1472.0634765625,1609287716.788657
300,1509.2568359375,1609287716.788664
301,1655.012451171875,1609287716.848741
302,1637.6676025390625,1609287716.848766
303,1479.4395751953125,1609287716.848792
304,1461.37939453125,1609287716.848802
305,1639.6121826171875,1609287716.848811
306,1663.1708984375,1609287716.84882
307,1473.7398681640625,1609287716.848829
308,1428.1199951171875,1609287716.848838
309,1569.2265625,1609287716.848847
310,1647.5469970703125,1609287716.848856
311,1502.4619140625,1609287716.848865
312,1406.1705322265625,1609287716.848875
313,1522.600830078125,1609287716.848884
314,1660.421630859375,1609287716.848894
315,1549.981689453125,1609287716.848905
316,1442.3133544921875,1609287716.907846
317,1543.968994140625,1609287716.907868
318,1667.507080078125,1609287716.907879
319,1597.4344482421875,1609287716.907886
320,1449.622314453125,1609287716.907892
321,1500.7855224609375,1609287716.907899
322,1668.1329345703125,1609287716.907905
323,1635.030029296875,1609287716.907912
324,1459.8370361328125,1609287716.907918
325,1506.4852294921875,1609287716.907924
326,1655.727783203125,1609287716.907963
327,1643.9483642578125,1609287716.907969
328,1477.2491455078125,1609287716.907975
329,1441.441650390625,1609287716.907981
330,1561.7386474609375,1609287716.907987
331,1562.2080078125,1609287716.967647
332,1240.5665283203125,1609287716.967664
333,993.0209350585938,1609287716.96767
334,939.130859375,1609287716.967676
335,760.2274780273438,1609287716.967682
336,370.7483825683594,1609287716.967688
337,95.21842956542969,1609287716.967694
338,189.27456665039062,1609287716.9677
339,603.6759033203125,1609287716.967706
340,1260.1689453125,1609287716.967712
341,1878.865234375,1609287716.967718
342,2137.363037109375,1609287716.967724
343,2173.41650390625,1609287716.96773
344,1948.13330078125,1609287716.967737
345,1695.692626953125,1609287716.967743
346,1681.1417236328125,1609287717.027689
347,1772.91796875,1609287717.027707
348,1704.6334228515625,1609287717.027714
349,1523.8524169921875,1609287717.027721
350,1480.199462890625,1609287717.027745
351,1652.933837890625,1609287717.027752
352,1653.1573486328125,1609287717.027759
353,1505.904052734375,1609287717.027766
354,1471.77294921875,1609287717.027772
355,1631.140869140625,1609287717.027779
356,1678.5712890625,1609287717.027786
357,1495.1304931640625,1609287717.027793
358,1399.6214599609375,1609287717.0278
359,1560.017578125,1609287717.027807
360,1649.2904052734375,1609287717.027814
361,1507.53564453125,1609287717.088417
362,1381.20361328125,1609287717.088436
363,1502.104248046875,1609287717.088443
364,1631.07373046875,1609287717.08845
365,1510.7320556640625,1609287717.088457
366,1375.9957275390625,1609287717.088464
367,1439.1170654296875,1609287717.088472
368,1602.843505859375,1609287717.08848
369,1507.7144775390625,1609287717.088489
370,1351.2969970703125,1609287717.088498
371,1375.258056640625,1609287717.088506
372,1541.5103759765625,1609287717.088515
373,1518.6221923828125,1609287717.088563
374,1357.175537109375,1609287717.088572
375,1353.1968994140625,1609287717.08858
376,1532.837890625,1609287717.148521
377,1530.289794921875,1609287717.148538
378,1358.7847900390625,1609287717.148544
379,1284.1746826171875,1609287717.14855
380,1465.022705078125,1609287717.148556
381,1543.968994140625,1609287717.148562
382,1369.960693359375,1609287717.148569
383,1262.515869140625,1609287717.148575
384,1377.7838134765625,1609287717.148581
385,1486.0333251953125,1609287717.148587
386,1378.6778564453125,1609287717.148593
387,1262.627685546875,1609287717.148599
388,1348.123046875,1609287717.148605
389,1493.811767578125,1609287717.148611
390,1421.3697509765625,1609287717.148617
391,1279.4361572265625,1609287717.207006
392,1349.575927734375,1609287717.207024
393,1525.35009765625,1609287717.207031
394,1487.709716796875,1609287717.207038
395,1307.286376953125,1609287717.207045
396,1323.0667724609375,1609287717.207073
397,1494.6611328125,1609287717.20708
398,1492.7835693359375,1609287717.207086
399,1330.5545654296875,1609287717.207093
400,1305.788818359375,1609287717.2071
401,1468.420166015625,1609287717.207107
402,1517.2139892578125,1609287717.207114
403,1358.0025634765625,1609287717.207121
404,1297.541015625,1609287717.207128
405,1459.6358642578125,1609287717.207135
406,1570.7464599609375,1609287717.267173
407,1438.334716796875,1609287717.267197
408,1366.160888671875,1609287717.267206
409,1498.4161376953125,1609287717.267215
410,1647.8599853515625,1609287717.267223
411,1530.6697998046875,1609287717.267232
412,1405.0306396484375,1609287717.267241
413,1497.14208984375,1609287717.267249
414,1649.46923828125,1609287717.267258
415,1581.765869140625,1609287717.267266
416,1427.896484375,1609287717.267274
417,1495.75634765625,1609287717.267283
418,1654.118408203125,1609287717.267291
419,1626.89404296875,1609287717.267321
420,1461.0440673828125,1609287717.267329
421,1452.57275390625,1609287717.327549
422,1612.1865234375,1609287717.327569
423,1648.7763671875,1609287717.327576
424,1490.6378173828125,1609287717.327583
425,1453.6456298828125,1609287717.32759
426,1609.347900390625,1609287717.327597
427,1666.814208984375,1609287717.327604
428,1524.187744140625,1609287717.327611
429,1454.919677734375,1609287717.327618
430,1608.4091796875,1609287717.327624
431,1678.615966796875,1609287717.327631
432,1553.2003173828125,1609287717.327638
433,1450.8070068359375,1609287717.327645
434,1566.52197265625,1609287717.327652
435,1693.8822021484375,1609287717.327659
436,1612.8795166015625,1609287717.386975
437,1495.197509765625,1609287717.386997
438,1568.4888916015625,1609287717.387006
439,1710.8248291015625,1609287717.387014
440,1655.0572509765625,1609287717.387021
441,1513.95068359375,1609287717.387029
442,1553.91552734375,1609287717.387036
443,1709.751953125,1609287717.387057
444,1701.34765625,1609287717.387066
445,1539.789306640625,1609287717.387073
446,1544.281982421875,1609287717.38708
447,1720.8607177734375,1609287717.387088
448,1756.265869140625,1609287717.387096
449,1617.349853515625,1609287717.387103
450,1565.471435546875,1609287717.387111
451,1698.3525390625,1609287717.447122
452,1766.7042236328125,1609287717.447136
453,1626.4022216796875,1609287717.447142
454,1550.1605224609375,1609287717.447148
455,1693.345703125,1609287717.447154
456,1800.3658447265625,1609287717.44716
457,1697.9501953125,1609287717.447166
458,1559.570556640625,1609287717.447172
459,1659.7064208984375,1609287717.447178
460,1793.7274169921875,1609287717.447184
461,1717.3739013671875,1609287717.44719
462,1596.048583984375,1609287717.447196
463,1665.1378173828125,1609287717.447202
464,1810.4688720703125,1609287717.447219
465,1761.6527099609375,1609287717.447225
466,1608.140869140625,1609287717.507523
467,1615.7628173828125,1609287717.50754
468,1788.8994140625,1609287717.507546
469,1786.7313232421875,1609287717.507552
470,1616.6121826171875,1609287717.507558
471,1596.4732666015625,1609287717.507565
472,1757.875244140625,1609287717.50757
473,1802.51171875,1609287717.507577
474,1627.67626953125,1609287717.507582
475,1569.5394287109375,1609287717.507588
476,1708.6343994140625,1609287717.507594
477,1792.00634765625,1609287717.5076
478,1670.5916748046875,1609287717.507606
479,1601.5694580078125,1609287717.507613
480,1693.2340087890625,1609287717.507619
481,1808.1219482421875,1609287717.567833
482,1719.1396484375,1609287717.56785
483,1590.6842041015625,1609287717.567857
484,1667.417724609375,1609287717.567864
485,1822.5164794921875,1609287717.567871
486,1763.5302734375,1609287717.567877
487,1613.1253662109375,1609287717.567884
488,1641.422607421875,1609287717.567891
489,1818.1578369140625,1609287717.567917
490,1784.362060546875,1609287717.567924
491,1625.239990234375,1609287717.56793
492,1619.2274169921875,1609287717.567938
493,1787.7818603515625,1609287717.567945
494,1791.4923095703125,1609287717.567952
495,1619.29443359375,1609287717.567959
496,1576.9378662109375,1609287717.567966
497,1728.9296875,1609287717.62779
498,1781.568115234375,1609287717.627793
499,1629.643310546875,1609287717.627795
500,1573.8980712890625,1609287717.627797
501,1714.4234619140625,1609287717.627799
502,1813.0169677734375,1609287717.627801
503,1686.2379150390625,1609287717.627803
504,1590.4830322265625,1609287717.627805
505,1719.787841796875,1609287717.627807
506,1859.3521728515625,1609287717.627809
507,1763.21728515625,1609287717.627811
508,1617.30517578125,1609287717.627813
509,1679.3311767578125,1609287717.627815
510,1812.346435546875,1609287717.627817
511,1755.2376708984375,1609287717.627828
512,1627.7880859375,1609287717.688242
513,1644.08251953125,1609287717.688261
514,1799.6282958984375,1609287717.688268
515,1779.8245849609375,1609287717.688275
516,1623.69775390625,1609287717.688282
517,1621.7755126953125,1609287717.688289
518,1791.7828369140625,1609287717.688296
519,1798.19775390625,1609287717.688303
520,1564.4208984375,1609287717.688309
521,1368.463134765625,1609287717.688316
522,1345.0609130859375,1609287717.688323
523,1196.31005859375,1609287717.68833
524,763.2896728515625,1609287717.688337
525,418.9610900878906,1609287717.688344
526,370.50250244140625,1609287717.688351
527,398.4198303222656,1609287717.748358
528,481.4342041015625,1609287717.748378
529,1081.5338134765625,1609287717.748385
530,2000.212890625,1609287717.748392
531,2386.249755859375,1609287717.748399
532,2192.79541015625,1609287717.748406
533,1922.987548828125,1609287717.748413
534,1882.3743896484375,1609287717.74842
535,1982.1973876953125,1609287717.748427
536,1869.0303955078125,1609287717.748459
537,1653.4031982421875,1609287717.748465
538,1684.1591796875,1609287717.748473
539,1857.0052490234375,1609287717.74848
540,1846.522216796875,1609287717.748487
541,1644.5518798828125,1609287717.748494
542,1616.343994140625,1609287717.808401
543,1778.70703125,1609287717.808421
544,1815.98974609375,1609287717.808428
545,1666.6353759765625,1609287717.808435
546,1579.10595703125,1609287717.808442
547,1735.679931640625,1609287717.808449
548,1792.900390625,1609287717.808456
549,1613.6617431640625,1609287717.808463
550,1524.277099609375,1609287717.80847
551,1650.519775390625,1609287717.808477
552,1783.4903564453125,1609287717.808484
553,1670.45751953125,1609287717.808491
554,1533.173095703125,1609287717.808498
555,1589.6783447265625,1609287717.808505
556,1730.5390625,1609287717.808512
557,1642.026123046875,1609287717.867397
558,1491.35302734375,1609287717.867414
559,1564.2420654296875,1609287717.867438
560,1707.3826904296875,1609287717.867446
561,1664.8026123046875,1609287717.867453
562,1488.0673828125,1609287717.867461
563,1477.405517578125,1609287717.867469
564,1635.141845703125,1609287717.867476
565,1621.4178466796875,1609287717.867484
566,1442.0450439453125,1609287717.867491
567,1443.4532470703125,1609287717.867499
568,1609.5267333984375,1609287717.867507
569,1626.3575439453125,1609287717.867515
570,1473.2705078125,1609287717.867523
571,1402.3037109375,1609287717.867531
572,1533.3072509765625,1609287717.927671
573,1627.2515869140625,1609287717.927678
574,1470.409423828125,1609287717.92768
575,1360.774169921875,1609287717.927682
576,1477.4501953125,1609287717.927684
577,1620.4566650390625,1609287717.927686
578,1508.385009765625,1609287717.927688
579,1350.3134765625,1609287717.92769
580,1432.2550048828125,1609287717.927692
581,1599.6248779296875,1609287717.927694
582,1558.31884765625,1609287717.927704
583,1403.1754150390625,1609287717.927707
584,1420.5203857421875,1609287717.927709
585,1593.254638671875,1609287717.927711
586,1579.8883056640625,1609287717.927713
587,1416.5640869140625,1609287717.987958
588,1424.141357421875,1609287717.987975
589,1618.48974609375,1609287717.987981
590,1640.4168701171875,1609287717.987987
591,1492.8505859375,1609287717.987993
592,1448.2589111328125,1609287717.987999
593,1626.1116943359375,1609287717.988005
594,1675.509033203125,1609287717.988011
595,1531.5191650390625,1609287717.988017
596,1455.97021484375,1609287717.988023
597,1622.244873046875,1609287717.988029
598,1744.1065673828125,1609287717.988035
599,1608.655029296875,1609287717.988041
600,1506.0380859375,1609287717.988047
601,1649.5810546875,1609287717.988054
602,1827.2103271484375,1609287718.048227
603,1726.62744140625,1609287718.048247
604,1565.6949462890625,1609287718.048254
605,1636.125244140625,1609287718.048261
606,1813.5086669921875,1609287718.048293
607,1738.02685546875,1609287718.0483
608,1577.6307373046875,1609287718.048306
609,1611.5831298828125,1609287718.048313
610,1787.558349609375,1609287718.04832
611,1764.82666015625,1609287718.048327
612,1604.609375,1609287718.048334
613,1584.71630859375,1609287718.048341
614,1719.787841796875,1609287718.048348
615,1771.3980712890625,1609287718.048355
616,1627.6539306640625,1609287718.048363
617,1565.270263671875,1609287718.107872
618,1736.082275390625,1609287718.107892
619,1802.1763916015625,1609287718.1079
620,1655.7947998046875,1609287718.107909
621,1566.4996337890625,1609287718.107918
622,1717.8209228515625,1609287718.107926
623,1822.248291015625,1609287718.107936
624,1705.8179931640625,1609287718.107945
625,1576.7813720703125,1609287718.107954
626,1697.905517578125,1609287718.107963
627,1830.6077880859375,1609287718.107972
628,1756.377685546875,1609287718.107981
629,1604.4752197265625,1609287718.108012
630,1666.85888671875,1609287718.108021
631,1844.7564697265625,1609287718.10803
632,1812.346435546875,1609287718.166793
633,1655.236083984375,1609287718.166809
634,1679.6888427734375,1609287718.166815
635,1845.0916748046875,1609287718.166821
636,1869.119873046875,1609287718.166827
637,1695.692626953125,1609287718.166833
638,1646.921142578125,1609287718.166839
639,1810.1112060546875,1609287718.166845
640,1875.0430908203125,1609287718.166851
641,1744.4642333984375,1609287718.166857
642,1649.3128662109375,1609287718.166863
643,1801.1258544921875,1609287718.16687
644,1912.705810546875,1609287718.166876
645,1769.4310302734375,1609287718.166882
646,1676.8277587890625,1609287718.166888
647,1805.752685546875,1609287718.227355
648,1923.14404296875,1609287718.227374
649,1824.237548828125,1609287718.227382
650,1667.507080078125,1609287718.227389
651,1756.869384765625,1609287718.227396
652,1912.0576171875,1609287718.227427
653,1834.8099365234375,1609287718.227434
654,1689.85888671875,1609287718.227441
655,1751.7508544921875,1609287718.227448
656,1904.1226806640625,1609287718.227455
657,1868.56103515625,1609287718.227462
658,1722.4254150390625,1609287718.227469
659,1726.3145751953125,1609287718.227476
660,1894.0867919921875,1609287718.227483
661,1894.5784912109375,1609287718.22749
662,1725.1298828125,1609287718.287321
663,1683.06396484375,1609287718.287339
664,1849.96435546875,1609287718.287346
665,1932.73291015625,1609287718.287353
666,1775.22021484375,1609287718.28736
667,1701.8841552734375,1609287718.287367
668,1863.5989990234375,1609287718.287374
669,1961.9466552734375,1609287718.287381
670,1819.78955078125,1609287718.287388
671,1689.3671875,1609287718.287396
672,1792.743896484375,1609287718.287404
673,1949.4296875,1609287718.287411
674,1860.58154296875,1609287718.287418
675,1712.2105712890625,1609287718.287462
676,1799.494140625,1609287718.287469
677,1966.1488037109375,1609287718.347821
678,1904.2568359375,1609287718.34784
679,1733.8023681640625,1609287718.347847
680,1755.371826171875,1609287718.347854
681,1928.4637451171875,1609287718.347862
682,1909.9342041015625,1609287718.347869
683,1709.2601318359375,1609287718.347876
684,1699.8724365234375,1609287718.347883
685,1860.6485595703125,1609287718.34789
686,1865.320068359375,1609287718.347897
687,1731.1649169921875,1609287718.347903
688,1684.7626953125,1609287718.347911
689,1839.3472900390625,1609287718.347918
690,1925.5579833984375,1609287718.347925
691,1781.366943359375,1609287718.347932
692,1696.296142578125,1609287718.406967
693,1844.041259765625,1609287718.406987
694,1961.11962890625,1609287718.406996
695,1828.4620361328125,1609287718.407003
696,1709.64013671875,1609287718.407011
697,1819.342529296875,1609287718.407017
698,1952.2236328125,1609287718.407025
699,1844.689453125,1609287718.407089
700,1704.0745849609375,1609287718.407096
701,1751.9520263671875,1609287718.407103
702,1930.7659912109375,1609287718.407111
703,1899.451171875,1609287718.407119
704,1728.326171875,1609287718.407126
705,1746.7216796875,1609287718.407134
706,1901.8875732421875,1609287718.407143
707,1838.430908203125,1609287718.466716
708,1548.573486328125,1609287718.466734
709,1355.23095703125,1609287718.46674
710,1323.8267822265625,1609287718.466746
711,1069.97802734375,1609287718.466753
712,652.2015380859375,1609287718.466759
713,425.59954833984375,1609287718.466765
714,447.21368408203125,1609287718.466771
715,659.8905029296875,1609287718.466777
716,1105.2713623046875,1609287718.466783
717,1856.7369384765625,1609287718.466789
718,2340.495849609375,1609287718.466795
719,2417.922119140625,1609287718.466801
720,2152.785888671875,1609287718.466807
721,1902.93798828125,1609287718.466813
722,1942.880615234375,1609287718.526798
723,2037.1156005859375,1609287718.526816
724,1912.0799560546875,1609287718.526823
725,1728.7508544921875,1609287718.52683
726,1744.084228515625,1609287718.526837
727,1905.396728515625,1609287718.526844
728,1861.520263671875,1609287718.526851
729,1701.504150390625,1609287718.526858
730,1715.138671875,1609287718.526864
731,1875.7806396484375,1609287718.526871
732,1874.104248046875,1609287718.526878
733,1704.6334228515625,1609287718.526885
734,1668.6917724609375,1609287718.526892
735,1810.60302734375,1609287718.526899
736,1876.205322265625,1609287718.526906
737,1728.23681640625,1609287718.586975
738,1639.07568359375,1609287718.586997
739,1761.1385498046875,1609287718.587006
740,1864.224853515625,1609287718.587014
741,1691.110595703125,1609287718.587023
742,1594.10400390625,1609287718.587031
743,1728.5050048828125,1609287718.587039
744,1851.9984130859375,1609287718.587047
745,1750.83447265625,1609287718.587074
746,1605.548095703125,1609287718.587082
747,1657.2476806640625,1609287718.58709
748,1813.4639892578125,1609287718.587099
749,1718.804443359375,1609287718.587107
750,1535.0506591796875,1609287718.587116
751,1585.968017578125,1609287718.587124
752,1762.479736328125,1609287718.647144
753,1731.544921875,1609287718.647151
754,1548.1934814453125,1609287718.647153
755,1531.0496826171875,1609287718.647155
756,1679.353515625,1609287718.647158
757,1709.2154541015625,1609287718.64716
758,1563.0126953125,1609287718.647163
759,1495.9798583984375,1609287718.647165
760,1650.564453125,1609287718.647168
761,1723.7664794921875,1609287718.647171
762,1548.3946533203125,1609287718.647173
763,1446.739013671875,1609287718.647176
764,1593.656982421875,1609287718.647179
765,1706.0191650390625,1609287718.647182
766,1582.90576171875,1609287718.647185
767,1474.902099609375,1609287718.70673
768,1562.3421630859375,1609287718.706775
769,1707.002685546875,1609287718.706782
770,1618.19921875,1609287718.706788
771,1478.4783935546875,1609287718.706794
772,1520.499755859375,1609287718.7068
773,1710.5341796875,1609287718.706806
774,1631.7667236328125,1609287718.706812
775,1494.1246337890625,1609287718.706818
776,1530.2003173828125,1609287718.706824
777,1706.7120361328125,1609287718.70683
778,1710.198974609375,1609287718.706836
779,1541.6668701171875,1609287718.706842
780,1539.878662109375,1609287718.706848
781,1748.4427490234375,1609287718.706854
782,1814.3580322265625,1609287718.766673
783,1663.8861083984375,1609287718.766695
784,1579.173095703125,1609287718.766703
785,1749.672119140625,1609287718.766711
786,1860.2015380859375,1609287718.766718
787,1737.7139892578125,1609287718.766727
788,1668.87060546875,1609287718.766735
789,1783.19970703125,1609287718.766743
790,1917.8690185546875,1609287718.766752
791,1810.0665283203125,1609287718.766761
792,1674.704345703125,1609287718.766799
793,1754.9248046875,1609287718.766809
794,1911.096435546875,1609287718.766817
795,1821.8682861328125,1609287718.766827
796,1682.4381103515625,1609287718.766837
797,1762.21142578125,1609287718.826709
798,1919.4559326171875,1609287718.826728
799,1887.6270751953125,1609287718.826736
800,1714.490478515625,1609287718.826743
801,1701.392333984375,1609287718.82675
802,1898.2889404296875,1609287718.826756
803,1908.704833984375,1609287718.826764
804,1737.490478515625,1609287718.82677
805,1684.9415283203125,1609287718.826777
806,1847.2152099609375,1609287718.826784
807,1915.25390625,1609287718.826791
808,1763.463134765625,1609287718.826798
809,1692.6304931640625,1609287718.826805
810,1843.638916015625,1609287718.826812
811,1941.383056640625,1609287718.826819
812,1820.1248779296875,1609287718.886753
813,1696.005615234375,1609287718.886772
814,1825.8692626953125,1609287718.886778
815,1968.9427490234375,1609287718.8868
816,1871.5784912109375,1609287718.886806
817,1736.2164306640625,1609287718.886812
818,1827.1656494140625,1609287718.886818
819,1989.953369140625,1609287718.886824
820,1914.9632568359375,1609287718.88683
821,1758.7022705078125,1609287718.886836
822,1807.8314208984375,1609287718.886842
823,1973.8154296875,1609287718.886848
824,1959.175048828125,1609287718.886855
825,1782.5291748046875,1609287718.886863
826,1791.80517578125,1609287718.886871
827,1963.2877197265625,1609287718.947155
828,1987.6064453125,1609287718.947174
829,1833.7147216796875,1609287718.947182
830,1782.6856689453125,1609287718.947191
831,1939.6396484375,1609287718.947204
832,2014.69677734375,1609287718.947211
833,1881.3463134765625,1609287718.947224
834,1773.1861572265625,1609287718.947232
835,1910.0458984375,1609287718.94724
836,2028.9124755859375,1609287718.947248
837,1907.900146484375,1609287718.947256
838,1790.665283203125,1609287718.947295
839,1900.9263916015625,1609287718.947303
840,2042.9716796875,1609287718.947313
841,1939.684326171875,1609287718.947322
842,1815.945068359375,1609287719.006554
843,1869.611572265625,1609287719.006573
844,2017.244873046875,1609287719.00658
845,1977.972900390625,1609287719.006587
846,1810.6253662109375,1609287719.006594
847,1847.1033935546875,1609287719.006601
848,2024.3751220703125,1609287719.006608
849,2040.4683837890625,1609287719.006615
850,1872.673828125,1609287719.006622
851,1821.845947265625,1609287719.006629
852,2008.2818603515625,1609287719.006636
853,2035.439208984375,1609287719.006643
854,1845.024658203125,1609287719.00665
855,1811.6759033203125,1609287719.006657
856,1956.51513671875,1609287719.006664
857,2063.311767578125,1609287719.066546
858,1939.1031494140625,1609287719.066565
859,1838.4979248046875,1609287719.066572
860,1962.12548828125,1609287719.066579
861,2076.834716796875,1609287719.066586
862,1959.4879150390625,1609287719.066618
863,1795.3814697265625,1609287719.066625
864,1891.15869140625,1609287719.066632
865,2049.87841796875,1609287719.066639
866,1971.177978515625,1609287719.066646
867,1810.20068359375,1609287719.066653
868,1845.0916748046875,1609287719.06666
869,1992.1885986328125,1609287719.066667
870,1963.10888671875,1609287719.066674
871,1801.751708984375,1609287719.066681
872,1791.3804931640625,1609287719.12628
873,1973.1002197265625,1609287719.126298
874,2004.9737548828125,1609287719.126306
875,1846.1646728515625,1609287719.126314
876,1826.6739501953125,1609287719.126321
877,2015.255615234375,1609287719.126329
878,2060.003662109375,1609287719.126337
879,1868.114013671875,1609287719.126344
880,1788.1842041015625,1609287719.126351
881,1949.385009765625,1609287719.126359
882,2057.388671875,1609287719.126366
883,1911.699951171875,1609287719.126374
884,1810.5806884765625,1609287719.126381
885,1923.501708984375,1609287719.126407
886,2062.3505859375,1609287719.126414
887,1959.0855712890625,1609287719.186694
888,1818.9178466796875,1609287719.186702
889,1893.2821044921875,1609287719.186705
890,2046.6597900390625,1609287719.186707
891,1908.5706787109375,1609287719.186709
892,1603.3800048828125,1609287719.186712
893,1489.5426025390625,1609287719.186714
894,1455.4561767578125,1609287719.186717
895,1178.965087890625,1609287719.186719
896,746.3917846679688,1609287719.186721
897,572.2940673828125,1609287719.186724
898,617.5563354492188,1609287719.186726
899,745.1177368164062,1609287719.186729
900,1149.6171875,1609287719.186731
901,1953.877685546875,1609287719.186734
902,2479.523681640625,1609287719.247032
903,2478.316650390625,1609287719.247048
904,2186.961669921875,1609287719.247054
905,2012.998046875,1609287719.24706
906,2106.62939453125,1609287719.247066
907,2154.328125,1609287719.247072
908,1969.5462646484375,1609287719.247095
909,1843.2142333984375,1609287719.247101
910,1935.392822265625,1609287719.247107
911,2058.506103515625,1609287719.247113
912,1945.8087158203125,1609287719.247119
913,1788.7877197265625,1609287719.247125
914,1841.98486328125,1609287719.247131
915,1999.2740478515625,1609287719.247137
916,1941.4947509765625,1609287719.247143
917,1770.9957275390625,1609287719.305768
918,1791.60400390625,1609287719.305782
919,1958.482177734375,1609287719.305788
920,1926.295654296875,1609287719.305794
921,1751.080322265625,1609287719.3058
922,1740.2174072265625,1609287719.305806
923,1907.006103515625,1609287719.305813
924,1939.483154296875,1609287719.305819
925,1762.770263671875,1609287719.305825
926,1744.978271484375,1609287719.305831
927,1899.5181884765625,1609287719.305837
928,1959.4432373046875,1609287719.305843
929,1803.40576171875,1609287719.305849
930,1680.3370361328125,1609287719.305855
931,1792.900390625,1609287719.305882
932,1911.14111328125,1609287719.365895
933,1787.7371826171875,1609287719.365916
934,1648.7987060546875,1609287719.365924
935,1727.8568115234375,1609287719.365932
936,1852.1995849609375,1609287719.365941
937,1757.0928955078125,1609287719.365948
938,1611.5159912109375,1609287719.365955
939,1659.7510986328125,1609287719.365963
940,1817.9566650390625,1609287719.365971
941,1765.072509765625,1609287719.365978
942,1593.5228271484375,1609287719.365986
943,1576.155517578125,1609287719.365993
944,1763.1949462890625,1609287719.366002
945,1782.4398193359375,1609287719.36601
946,1585.9232177734375,1609287719.366018
947,1551.72509765625,1609287719.426129
948,1720.8607177734375,1609287719.426151
949,1778.41650390625,1609287719.426158
950,1611.5831298828125,1609287719.426164
951,1548.7523193359375,1609287719.42617
952,1698.5313720703125,1609287719.426176
953,1773.074462890625,1609287719.426182
954,1628.9056396484375,1609287719.426188
955,1522.9136962890625,1609287719.426214
956,1667.9542236328125,1609287719.42622
957,1812.6146240234375,1609287719.426226
958,1718.603271484375,1609287719.426232
959,1566.92431640625,1609287719.426239
960,1657.6500244140625,1609287719.426245
961,1827.0091552734375,1609287719.426251
962,1782.6856689453125,1609287719.486254
963,1615.852294921875,1609287719.486274
964,1632.3031005859375,1609287719.486281
965,1841.4483642578125,1609287719.486288
966,1820.750732421875,1609287719.486295
967,1658.320556640625,1609287719.486302
968,1684.7626953125,1609287719.486309
969,1879.06640625,1609287719.486316
970,1915.387939453125,1609287719.486323
971,1770.9285888671875,1609287719.48633
972,1714.8704833984375,1609287719.486337
973,1874.2830810546875,1609287719.486343
974,1956.984619140625,1609287719.486351
975,1808.30078125,1609287719.486358
976,1716.5692138671875,1609287719.486365
977,1862.6826171875,1609287719.54654
978,1969.32275390625,1609287719.546583
979,1844.2647705078125,1609287719.54659
980,1711.696533203125,1609287719.546597
981,1838.6990966796875,1609287719.546604
982,1979.4256591796875,1609287719.546611
983,1880.2509765625,1609287719.546618
984,1727.6556396484375,1609287719.546624
985,1780.3834228515625,1609287719.546631
986,1935.4598388671875,1609287719.546638
987,1886.800048828125,1609287719.546645
988,1733.5118408203125,1609287719.546652
989,1780.271728515625,1609287719.546659
990,1961.72314453125,1609287719.546666
991,1926.1168212890625,1609287719.546673
992,1746.3193359375,1609287719.54668
993,1734.3612060546875,1609287719.607143
994,1914.6280517578125,1609287719.607154
995,1953.0059814453125,1609287719.607163
996,1801.1258544921875,1609287719.607173
997,1742.4078369140625,1609287719.607181
998,1929.983642578125,1609287719.60719
999,2009.3994140625,1609287719.607199
1000,1860.2908935546875,1609287719.607208
1001,1759.7974853515625,1609287719.607241
1002,1891.5386962890625,1609287719.60725
1003,2031.035888671875,1609287719.607259
1004,1902.7816162109375,1609287719.607268
1005,1768.3804931640625,1609287719.607277
1006,1865.677734375,1609287719.607286
1007,2025.2020263671875,1609287719.607295
1008,1944.668701171875,1609287719.666643
1009,1766.927734375,1609287719.66666
1010,1846.5445556640625,1609287719.666666
1011,2023.5927734375,1609287719.666673
1012,1984.8348388671875,1609287719.666679
1013,1818.20263671875,1609287719.666685
1014,1837.4473876953125,1609287719.666691
1015,2015.434326171875,1609287719.666697
1016,2023.7939453125,1609287719.666703
1017,1839.0120849609375,1609287719.666709
1018,1799.8741455078125,1609287719.666715
1019,1996.4801025390625,1609287719.666722
1020,2042.927001953125,1609287719.666728
1021,1871.019775390625,1609287719.666734
1022,1786.708984375,1609287719.66674
1023,1938.7454833984375,1609287719.726724
1024,2041.340087890625,1609287719.726774
1025,1912.6610107421875,1609287719.72678
1026,1818.448486328125,1609287719.726786
1027,1947.082763671875,1609287719.726792
1028,2073.66064453125,1609287719.726798
1029,1959.0855712890625,1609287719.726804
1030,1801.438720703125,1609287719.72681
1031,1889.6387939453125,1609287719.726816
1032,2026.140869140625,1609287719.726822
1033,1947.619140625,1609287719.726828
1034,1785.658447265625,1609287719.726834
1035,1860.022705078125,1609287719.72684
1036,2044.134033203125,1609287719.726847
1037,2023.9056396484375,1609287719.726853
1038,1868.3375244140625,1609287719.786722
1039,1857.832275390625,1609287719.786741
1040,2044.6927490234375,1609287719.786748
1041,2073.213623046875,1609287719.786755
1042,1884.319091796875,1609287719.786762
1043,1833.535888671875,1609287719.786769
1044,1983.404296875,1609287719.786776
1045,2025.8055419921875,1609287719.786783
1046,1876.4959716796875,1609287719.78679
1047,1790.9781494140625,1609287719.786797
1048,1928.597900390625,1609287719.786829
1049,2025.9620361328125,1609287719.786836
1050,1904.2120361328125,1609287719.786843
1051,1779.668212890625,1609287719.78685
1052,1884.207275390625,1609287719.786857
1053,2030.7230224609375,1609287719.847093
1054,1952.581298828125,1609287719.847113
1055,1805.3056640625,1609287719.84712
1056,1866.1024169921875,1609287719.847127
1057,2060.361328125,1609287719.847134
1058,2015.7919921875,1609287719.847141
1059,1829.2890625,1609287719.847148
1060,1870.215087890625,1609287719.847155
1061,2021.938720703125,1609287719.847162
1062,1998.0,1609287719.847169
1063,1816.6826171875,1609287719.847176
1064,1809.3736572265625,1609287719.847183
1065,1991.6744384765625,1609287719.84719
1066,2010.1146240234375,1609287719.847197
1067,1850.5902099609375,1609287719.847204
1068,1779.62353515625,1609287719.906952
1069,1935.683349609375,1609287719.906979
1070,2031.728759765625,1609287719.906987
1071,1849.4056396484375,1609287719.907019
1072,1658.1417236328125,1609287719.907027
1073,1639.433349609375,1609287719.907034
1074,1602.239990234375,1609287719.907041
1075,1231.245849609375,1609287719.907049
1076,812.5753173828125,1609287719.907057
1077,732.7125244140625,1609287719.907065
1078,768.6317749023438,1609287719.907072
1079,676.16259765625,1609287719.90708
1080,843.2195434570312,1609287719.907088
1081,1704.6334228515625,1609287719.907096
1082,2481.222412109375,1609287719.907104
1083,2480.3505859375,1609287719.966388
1084,2189.7109375,1609287719.966406
1085,2091.385498046875,1609287719.966412
1086,2176.881103515625,1609287719.966418
1087,2108.9541015625,1609287719.966424
1088,1857.8992919921875,1609287719.96643
1089,1807.1607666015625,1609287719.966436
1090,1975.40234375,1609287719.966442
1091,2015.031982421875,1609287719.966448
1092,1828.2608642578125,1609287719.966454
1093,1756.869384765625,1609287719.96646
1094,1910.13525390625,1609287719.966487
1095,2006.8289794921875,1609287719.966493
1096,1857.9439697265625,1609287719.966499
1097,1740.23974609375,1609287719.966505
1098,1840.9566650390625,1609287720.02614
1099,1966.864013671875,1609287720.026159
1100,1859.910888671875,1609287720.026166
1101,1691.8929443359375,1609287720.026172
1102,1779.0870361328125,1609287720.026178
1103,1933.492919921875,1609287720.026184
1104,1844.97998046875,1609287720.026191
1105,1673.966796875,1609287720.026197
1106,1745.7159423828125,1609287720.026203
1107,1910.2470703125,1609287720.026209
1108,1861.2744140625,1609287720.026215
1109,1694.4857177734375,1609287720.026221
1110,1700.4759521484375,1609287720.026227
1111,1861.1402587890625,1609287720.026233
1112,1883.0673828125,1609287720.02624
1113,1678.6829833984375,1609287720.086567
1114,1647.7928466796875,1609287720.086587
1115,1826.427978515625,1609287720.086594
1116,1865.208251953125,1609287720.086601
1117,1702.84521484375,1609287720.086608
1118,1600.250732421875,1609287720.086639
1119,1738.7197265625,1609287720.086646
1120,1828.5738525390625,1609287720.086653
1121,1690.4847412109375,1609287720.08666
1122,1569.472412109375,1609287720.086667
1123,1679.308837890625,1609287720.086674
1124,1819.18603515625,1609287720.086681
1125,1695.15625,1609287720.086688
1126,1536.6153564453125,1609287720.086695
1127,1630.3585205078125,1609287720.086702
1128,1798.2200927734375,1609287720.146649
1129,1726.9627685546875,1609287720.146666
1130,1559.6375732421875,1609287720.146672
1131,1606.1739501953125,1609287720.146678
1132,1768.5146484375,1609287720.146684
1133,1755.081298828125,1609287720.146691
1134,1590.3936767578125,1609287720.146697
1135,1593.858154296875,1609287720.146703
1136,1785.21142578125,1609287720.146709
1137,1804.41162109375,1609287720.146715
1138,1643.7471923828125,1609287720.146721
1139,1580.3353271484375,1609287720.146727
1140,1742.6090087890625,1609287720.146733
1141,1813.6875,1609287720.146761
1142,1666.7918701171875,1609287720.146767
1143,1580.871826171875,1609287720.20674
1144,1735.1658935546875,1609287720.206761
1145,1867.1976318359375,1609287720.206768
1146,1723.1629638671875,1609287720.206776
1147,1611.69482421875,1609287720.206783
1148,1731.9696044921875,1609287720.20679
1149,1885.816650390625,1609287720.206796
1150,1796.5660400390625,1609287720.206803
1151,1665.607177734375,1609287720.20681
1152,1754.83544921875,1609287720.206817
1153,1924.32861328125,1609287720.206824
1154,1869.3880615234375,1609287720.206831
1155,1700.811279296875,1609287720.206838
1156,1736.7528076171875,1609287720.206845
1157,1916.594970703125,1609287720.206852
1158,1911.386962890625,1609287720.265928
1159,1721.4642333984375,1609287720.265947
1160,1691.8704833984375,1609287720.265954
1161,1880.899169921875,1609287720.265961
1162,1922.585205078125,1609287720.265968
1163,1742.0948486328125,1609287720.265975
1164,1702.95703125,1609287720.266007
1165,1860.7379150390625,1609287720.266013
1166,1929.4696044921875,1609287720.26602
1167,1772.515625,1609287720.266027
1168,1670.6363525390625,1609287720.266034
1169,1785.546630859375,1609287720.266041
1170,1927.9049072265625,1609287720.266048
1171,1816.1685791015625,1609287720.266055
1172,1710.154296875,1609287720.266062
1173,1813.1287841796875,1609287720.326192
1174,1950.2567138671875,1609287720.326216
1175,1845.58349609375,1609287720.326223
1176,1702.0853271484375,1609287720.32623
1177,1757.7410888671875,1609287720.326237
1178,1942.5006103515625,1609287720.326244
1179,1901.194580078125,1609287720.326251
1180,1733.7353515625,1609287720.326258
1181,1760.8480224609375,1609287720.326265
1182,1932.4423828125,1609287720.326272
1183,1935.795166015625,1609287720.326279
1184,1770.459228515625,1609287720.326286
1185,1743.167724609375,1609287720.326293
1186,1909.5765380859375,1609287720.3263
1187,1966.059326171875,1609287720.326331
1188,1818.40380859375,1609287720.385979
1189,1758.478759765625,1609287720.386002
1190,1890.711669921875,1609287720.38601
1191,2011.0758056640625,1609287720.386017
1192,1859.709716796875,1609287720.386025
1193,1753.5614013671875,1609287720.386033
1194,1892.052734375,1609287720.38604
1195,2018.3177490234375,1609287720.386048
1196,1914.1810302734375,1609287720.386055
1197,1753.8519287109375,1609287720.386063
1198,1853.8536376953125,1609287720.38607
1199,2012.50634765625,1609287720.386078
1200,1932.487060546875,1609287720.386113
1201,1774.6837158203125,1609287720.386121
1202,1809.239501953125,1609287720.386128
1203,1975.40234375,1609287720.446669
1204,1964.4500732421875,1609287720.446685
1205,1782.260986328125,1609287720.446691
1206,1778.550537109375,1609287720.446697
1207,1971.7813720703125,1609287720.446703
1208,2034.433349609375,1609287720.446709
1209,1860.1343994140625,1609287720.446715
1210,1782.171630859375,1609287720.446722
1211,1956.7386474609375,1609287720.446761
1212,2042.591796875,1609287720.446767
1213,1878.75341796875,1609287720.446773
1214,1792.0286865234375,1609287720.446779
1215,1907.54248046875,1609287720.446785
1216,2015.2779541015625,1609287720.446791
1217,1890.3763427734375,1609287720.446797
1218,1755.41650390625,1609287720.50597
1219,1872.316162109375,1609287720.505987
1220,2018.541259765625,1609287720.505993
1221,1919.590087890625,1609287720.505999
1222,1777.3436279296875,1609287720.506005
1223,1857.228759765625,1609287720.506011
1224,2018.787109375,1609287720.506017
1225,1967.6240234375,1609287720.506023
1226,1782.5291748046875,1609287720.506029
1227,1818.0908203125,1609287720.506035
1228,1982.3984375,1609287720.506041
1229,1944.7581787109375,1609287720.506048
1230,1769.0511474609375,1609287720.506054
1231,1749.985107421875,1609287720.50606
1232,1921.2218017578125,1609287720.506066
1233,1964.8076171875,1609287720.5657
1234,1825.1539306640625,1609287720.565744
1235,1743.525390625,1609287720.565751
1236,1883.8272705078125,1609287720.565758
1237,1981.9962158203125,1609287720.565764
1238,1852.1995849609375,1609287720.565771
1239,1771.956787109375,1609287720.565778
1240,1893.3714599609375,1609287720.565785
1241,2024.151611328125,1609287720.565792
1242,1907.2742919921875,1609287720.565799
1243,1764.580810546875,1609287720.565805
1244,1867.1529541015625,1609287720.565813
1245,2010.8746337890625,1609287720.56582
1246,1923.6580810546875,1609287720.565827
1247,1760.8480224609375,1609287720.565834
1248,1837.08984375,1609287720.625637
1249,2006.3819580078125,1609287720.625654
1250,1944.9593505859375,1609287720.625662
1251,1778.8411865234375,1609287720.62567
1252,1778.5953369140625,1609287720.625677
1253,1926.2509765625,1609287720.625685
1254,1852.2442626953125,1609287720.625693
1255,1569.7852783203125,1609287720.625701
1256,1401.1861572265625,1609287720.625708
1257,1386.7244873046875,1609287720.625734
1258,1179.5238037109375,1609287720.625741
1259,782.51220703125,1609287720.625749
1260,538.7217407226562,1609287720.625757
1261,560.872314453125,1609287720.625766
1262,821.4712524414062,1609287720.625773
1263,1328.274658203125,1609287720.686486
1264,2018.9212646484375,1609287720.686503
1265,2401.09130859375,1609287720.686509
1266,2441.324462890625,1609287720.686515
1267,2191.9013671875,1609287720.686521
1268,1928.6649169921875,1609287720.686527
1269,1928.8660888671875,1609287720.686533
1270,2062.373046875,1609287720.686539
1271,1948.2449951171875,1609287720.686545
1272,1775.2872314453125,1609287720.686551
1273,1798.4884033203125,1609287720.686557
1274,1957.9903564453125,1609287720.686563
1275,1941.785400390625,1609287720.68657
1276,1748.3087158203125,1609287720.686576
1277,1745.537109375,1609287720.686582
1278,1916.8408203125,1609287720.746137
1279,1936.2198486328125,1609287720.746156
1280,1733.5118408203125,1609287720.746191
1281,1666.5460205078125,1609287720.746199
1282,1828.97607421875,1609287720.746207
1283,1914.203369140625,1609287720.746216
1284,1768.6488037109375,1609287720.746225
1285,1661.181640625,1609287720.746233
1286,1813.5758056640625,1609287720.746241
1287,1929.380126953125,1609287720.746249
1288,1771.21923828125,1609287720.746257
1289,1634.739501953125,1609287720.746266
1290,1719.8548583984375,1609287720.746274
1291,1883.6484375,1609287720.746283
1292,1788.251220703125,1609287720.746292
1293,1622.1553955078125,1609287720.806139
1294,1697.2349853515625,1609287720.806159
1295,1855.9993896484375,1609287720.806166
1296,1779.467041015625,1609287720.806173
1297,1583.30810546875,1609287720.80618
1298,1581.0281982421875,1609287720.806187
1299,1763.7314453125,1609287720.806194
1300,1761.272705078125,1609287720.806201
1301,1570.567626953125,1609287720.806208
1302,1557.4248046875,1609287720.806215
1303,1746.185302734375,1609287720.806222
1304,1767.9334716796875,1609287720.806253
1305,1573.8980712890625,1609287720.80626
1306,1507.088623046875,1609287720.806267
1307,1679.1746826171875,1609287720.806274
1308,1783.5350341796875,1609287720.865273
1309,1624.27880859375,1609287720.86529
1310,1510.0390625,1609287720.865297
1311,1640.193359375,1609287720.865305
1312,1759.283447265625,1609287720.865311
1313,1649.022216796875,1609287720.865319
1314,1521.0584716796875,1609287720.865326
1315,1612.253662109375,1609287720.865333
1316,1771.7332763671875,1609287720.86534
1317,1684.718017578125,1609287720.865346
1318,1544.4608154296875,1609287720.865353
1319,1579.5753173828125,1609287720.865361
1320,1759.931640625,1609287720.865368
1321,1708.4332275390625,1609287720.865374
1322,1529.1722412109375,1609287720.865381
1323,1565.6055908203125,1609287720.925363
1324,1737.24462890625,1609287720.925378
1325,1739.2562255859375,1609287720.925385
1326,1562.7891845703125,1609287720.925391
1327,1525.32763671875,1609287720.92542
1328,1707.5838623046875,1609287720.925426
1329,1786.4854736328125,1609287720.925433
1330,1616.232177734375,1609287720.925438
1331,1549.780517578125,1609287720.925444
1332,1715.697509765625,1609287720.92545
1333,1808.18896484375,1609287720.925456
1334,1684.5615234375,1609287720.925463
1335,1575.10498046875,1609287720.925469
1336,1701.86181640625,1609287720.925475
1337,1839.839111328125,1609287720.925481
1338,1728.7061767578125,1609287720.985691
1339,1597.3673095703125,1609287720.985708
1340,1683.712158203125,1609287720.985715
1341,1833.8040771484375,1609287720.985722
1342,1767.2406005859375,1609287720.985729
1343,1597.054443359375,1609287720.985736
1344,1651.033935546875,1609287720.985743
1345,1843.482421875,1609287720.98575
1346,1812.8157958984375,1609287720.985757
1347,1622.4683837890625,1609287720.985764
1348,1633.040771484375,1609287720.985771
1349,1808.7701416015625,1609287720.985778
1350,1843.8624267578125,1609287720.985809
1351,1674.503173828125,1609287720.985816
1352,1603.044677734375,1609287720.985823
1353,1758.7916259765625,1609287721.045907
1354,1816.548583984375,1609287721.045924
1355,1671.9998779296875,1609287721.04593
1356,1605.145751953125,1609287721.045936
1357,1765.5865478515625,1609287721.045942
1358,1873.0985107421875,1609287721.045948
1359,1720.9501953125,1609287721.045954
1360,1601.144775390625,1609287721.04596
1361,1737.333984375,1609287721.045967
1362,1864.6495361328125,1609287721.045973
1363,1747.61572265625,1609287721.045979
1364,1619.4061279296875,1609287721.045985
1365,1724.9735107421875,1609287721.045991
1366,1896.411376953125,1609287721.045997
1367,1823.701171875,1609287721.046003
1368,1639.7462158203125,1609287721.105318
1369,1664.221435546875,1609287721.105336
1370,1854.7476806640625,1609287721.105344
1371,1832.37353515625,1609287721.105351
1372,1651.7938232421875,1609287721.105359
1373,1635.07470703125,1609287721.105366
1374,1828.3726806640625,1609287721.105399
1375,1874.126708984375,1609287721.105406
1376,1726.091064453125,1609287721.105413
1377,1692.2281494140625,1609287721.105421
1378,1849.58447265625,1609287721.105429
1379,1932.196533203125,1609287721.105437
1380,1775.466064453125,1609287721.105445
1381,1648.619873046875,1609287721.105453
1382,1826.6962890625,1609287721.10546
1383,1955.12939453125,1609287721.166465
1384,1810.446533203125,1609287721.166479
1385,1661.8521728515625,1609287721.166485
1386,1790.9334716796875,1609287721.166491
1387,1948.982666015625,1609287721.166497
1388,1817.442626953125,1609287721.166504
1389,1648.7540283203125,1609287721.16651
1390,1725.487548828125,1609287721.166516
1391,1901.55224609375,1609287721.166522
1392,1851.283203125,1609287721.166528
1393,1668.1329345703125,1609287721.166534
1394,1704.1639404296875,1609287721.16654
1395,1880.4744873046875,1609287721.166546
1396,1878.57470703125,1609287721.166552
1397,1703.8287353515625,1609287721.166573
1398,1644.88720703125,1609287721.225233
1399,1801.6846923828125,1609287721.225251
1400,1851.2608642578125,1609287721.225258
1401,1669.07177734375,1609287721.225266
1402,1591.6900634765625,1609287721.225273
1403,1775.6002197265625,1609287721.225282
1404,1895.15966796875,1609287721.225288
1405,1718.6256103515625,1609287721.225295
1406,1605.5927734375,1609287721.225302
1407,1737.7139892578125,1609287721.22531
1408,1920.484130859375,1609287721.225318
1409,1770.7275390625,1609287721.225326
1410,1609.2808837890625,1609287721.225333
1411,1706.086181640625,1609287721.225341
1412,1858.2569580078125,1609287721.225348
1413,1751.169677734375,1609287721.285499
1414,1559.8387451171875,1609287721.285518
1415,1577.250732421875,1609287721.285525
1416,1793.90625,1609287721.285532
1417,1799.4271240234375,1609287721.285539
1418,1581.5423583984375,1609287721.285546
1419,1575.9766845703125,1609287721.285553
1420,1785.81494140625,1609287721.285584
1421,1815.2745361328125,1609287721.285591
1422,1639.0086669921875,1609287721.285597
1423,1598.6190185546875,1609287721.285604
1424,1769.9451904296875,1609287721.285612
1425,1842.6107177734375,1609287721.285619
1426,1652.531494140625,1609287721.285626
1427,1537.2635498046875,1609287721.285633
1428,1715.697509765625,1609287721.345729
1429,1826.6962890625,1609287721.345744
1430,1681.25341796875,1609287721.345751
1431,1523.2713623046875,1609287721.345757
1432,1669.027099609375,1609287721.345763
1433,1850.7020263671875,1609287721.34577
1434,1725.398193359375,1609287721.345776
1435,1504.8311767578125,1609287721.345783
1436,1521.72900390625,1609287721.345789
1437,1642.2943115234375,1609287721.345795
1438,1423.7166748046875,1609287721.345801
1439,993.6243896484375,1609287721.345807
1440,817.29150390625,1609287721.345814
1441,788.055419921875,1609287721.34582
1442,583.0228881835938,1609287721.345826
1443,227.4513397216797,1609287721.404468
1444,235.0062255859375,1609287721.404486
1445,865.4371337890625,1609287721.404494
1446,1722.5147705078125,1609287721.404501
1447,2030.8570556640625,1609287721.404508
1448,1969.166259765625,1609287721.404516
1449,2037.27197265625,1609287721.404523
1450,1995.854248046875,1609287721.404531
1451,1695.7374267578125,1609287721.404538
1452,1463.8380126953125,1609287721.404545
1453,1577.563720703125,1609287721.404552
1454,1759.5963134765625,1609287721.40456
1455,1578.7930908203125,1609287721.404567
1456,1376.174560546875,1609287721.404575
1457,1491.75537109375,1609287721.404583
1458,1675.509033203125,1609287721.464852
1459,1527.5628662109375,1609287721.46487
1460,1311.689697265625,1609287721.464878
1461,1399.9791259765625,1609287721.464886
1462,1644.48486328125,1609287721.464892
1463,1534.178955078125,1609287721.4649
1464,1275.4798583984375,1609287721.464907
1465,1287.5274658203125,1609287721.464915
1466,1526.93701171875,1609287721.464922
1467,1517.03515625,1609287721.464955
1468,1287.013427734375,1609287721.464962
1469,1256.927978515625,1609287721.46497
1470,1486.74853515625,1609287721.464978
1471,1555.077880859375,1609287721.464985
1472,1307.599365234375,1609287721.464994
1473,1196.5335693359375,1609287721.525307
1474,1451.3880615234375,1609287721.525327
1475,1584.2244873046875,1609287721.525334
1476,1338.42236328125,1609287721.525341
1477,1165.822265625,1609287721.525348
1478,1373.62646484375,1609287721.525356
1479,1548.5958251953125,1609287721.525363
1480,1360.8858642578125,1609287721.52537
1481,1148.4549560546875,1609287721.525377
1482,1294.300048828125,1609287721.525384
1483,1520.879638671875,1609287721.525391
1484,1370.921875,1609287721.525398
1485,1125.589111328125,1609287721.525405
1486,1192.666748046875,1609287721.525412
1487,1431.78564453125,1609287721.525421
1488,1369.8489990234375,1609287721.525428
1489,1120.6717529296875,1609287721.586143
1490,1147.2479248046875,1609287721.586168
1491,1431.025634765625,1609287721.586176
1492,1442.626220703125,1609287721.586184
1493,1159.0496826171875,1609287721.586192
1494,1113.7650146484375,1609287721.586199
1495,1378.566162109375,1609287721.586207
1496,1447.9012451171875,1609287721.586214
1497,1214.7725830078125,1609287721.586222
1498,1130.439453125,1609287721.586229
1499,1377.60498046875,1609287721.586237
1500,1494.5716552734375,1609287721.586245
1501,1278.9891357421875,1609287721.586253
1502,1150.3548583984375,1609287721.586261
1503,1377.6497802734375,1609287721.586268
1504,1598.7978515625,1609287721.645198
1505,1393.653564453125,1609287721.645211
1506,1181.155517578125,1609287721.645216
1507,1317.1435546875,1609287721.645221
1508,1559.72705078125,1609287721.645226
1509,1431.58447265625,1609287721.645231
1510,1191.750244140625,1609287721.645236
1511,1311.734375,1609287721.645241
1512,1612.0301513671875,1609287721.645246
1513,1573.875732421875,1609287721.64526
1514,1258.3585205078125,1609287721.645265
1515,1288.5333251953125,1609287721.64527
1516,1606.8221435546875,1609287721.645276
1517,1633.48779296875,1609287721.645281
1518,1339.182373046875,1609287721.645286
1519,1285.7840576171875,1609287721.705755
1520,1576.9825439453125,1609287721.705762
1521,1670.0999755859375,1609287721.705764
1522,1418.352294921875,1609287721.705766
1523,1303.196044921875,1609287721.705768
1524,1541.376220703125,1609287721.70577
1525,1681.5887451171875,1609287721.705772
1526,1462.876953125,1609287721.705774
1527,1290.0308837890625,1609287721.705776
1528,1499.8466796875,1609287721.705778
1529,1696.698486328125,1609287721.70578
1530,1480.311279296875,1609287721.705782
1531,1244.27685546875,1609287721.705784
1532,1398.5709228515625,1609287721.705787
1533,1661.4498291015625,1609287721.705789
1534,1522.73486328125,1609287721.765803
1535,1251.5634765625,1609287721.765842
1536,1330.4205322265625,1609287721.765855
1537,1596.6744384765625,1609287721.765861
1538,1525.35009765625,1609287721.765867
1539,1235.4703369140625,1609287721.765873
1540,1247.2496337890625,1609287721.765879
1541,1549.1546630859375,1609287721.765885
1542,1556.463623046875,1609287721.765891
1543,1241.4605712890625,1609287721.765897
1544,1142.487060546875,1609287721.765903
1545,1429.8187255859375,1609287721.765909
1546,1543.6114501953125,1609287721.765915
1547,1276.86572265625,1609287721.765921
1548,1112.4686279296875,1609287721.765928
1549,1339.785888671875,1609287721.826242
1550,1500.606689453125,1609287721.826262
1551,1280.8890380859375,1609287721.826269
1552,1101.002197265625,1609287721.826276
1553,1299.9327392578125,1609287721.826283
1554,1566.656005859375,1609287721.82629
1555,1369.0889892578125,1609287721.826297
1556,1107.3724365234375,1609287721.826304
1557,1227.0660400390625,1609287721.826311
1558,1493.8564453125,1609287721.826318
1559,1403.8682861328125,1609287721.826325
1560,1127.73486328125,1609287721.826359
1561,1182.6083984375,1609287721.826366
1562,1473.315185546875,1609287721.826373
1563,1457.8701171875,1609287721.82638
1564,1171.5443115234375,1609287721.885114
1565,1172.661865234375,1609287721.885132
1566,1472.1304931640625,1609287721.885139
1567,1540.4598388671875,1609287721.885147
1568,1248.07666015625,1609287721.885154
1569,1167.878662109375,1609287721.885161
1570,1422.3531494140625,1609287721.885168
1571,1521.796142578125,1609287721.885175
1572,1264.9522705078125,1609287721.885182
1573,1110.300537109375,1609287721.885189
1574,1391.01611328125,1609287721.885196
1575,1634.3594970703125,1609287721.885204
1576,1436.5018310546875,1609287721.885212
1577,1266.2933349609375,1609287721.885219
1578,1456.730224609375,1609287721.885226
1579,1752.33203125,1609287721.945192
1580,1615.651123046875,1609287721.945208
1581,1363.5904541015625,1609287721.945215
1582,1483.5299072265625,1609287721.945221
1583,1770.168701171875,1609287721.945248
1584,1725.576904296875,1609287721.945254
1585,1496.5833740234375,1609287721.94526
1586,1512.9224853515625,1609287721.945266
1587,1794.8226318359375,1609287721.945272
1588,1776.02490234375,1609287721.945278
1589,1482.904052734375,1609287721.945284
1590,1506.2840576171875,1609287721.94529
1591,1810.2900390625,1609287721.945296
1592,1853.38427734375,1609287721.945302
1593,1564.778564453125,1609287721.945308
1594,1488.0225830078125,1609287722.005553
1595,1762.658447265625,1609287722.005572
1596,1875.95947265625,1609287722.00558
1597,1602.59765625,1609287722.005587
1598,1452.036376953125,1609287722.005594
1599,1674.7491455078125,1609287722.005601
1600,1851.730224609375,1609287722.005608
1601,1637.1087646484375,1609287722.005614
1602,1437.0830078125,1609287722.005621
1603,1606.10693359375,1609287722.005628
1604,1836.77685546875,1609287722.005635
1605,1667.2388916015625,1609287722.005642
1606,1419.7603759765625,1609287722.005674
1607,1511.0225830078125,1609287722.005681
1608,1698.9783935546875,1609287722.005688
1609,1470.56591796875,1609287722.065582
1610,1038.88671875,1609287722.065601
1611,853.76953125,1609287722.065609
1612,874.3555297851562,1609287722.065616
1613,659.1082153320312,1609287722.065623
1614,222.37750244140625,1609287722.06563
1615,175.63999938964844,1609287722.065637
1616,761.9932861328125,1609287722.065644
1617,1537.1964111328125,1609287722.065651
1618,1930.2294921875,1609287722.065657
1619,1937.73974609375,1609287722.065664
1620,2027.9512939453125,1609287722.065672
1621,1985.371337890625,1609287722.065679
1622,1617.5062255859375,1609287722.065686
1623,1356.482666015625,1609287722.065693
1624,1540.5491943359375,1609287722.125466
1625,1732.0142822265625,1609287722.125484
1626,1530.8485107421875,1609287722.125492
1627,1294.85888671875,1609287722.1255
1628,1410.9761962890625,1609287722.125508
1629,1659.7957763671875,1609287722.125516
1630,1511.2684326171875,1609287722.125558
1631,1246.2437744140625,1609287722.125568
1632,1351.9005126953125,1609287722.125577
1633,1620.2779541015625,1609287722.125586
1634,1564.71142578125,1609287722.125595
1635,1303.0843505859375,1609287722.125604
1636,1311.9132080078125,1609287722.125613
1637,1577.0272216796875,1609287722.125623
1638,1597.8814697265625,1609287722.125632
1639,1331.04638671875,1609287722.184848
1640,1259.8560791015625,1609287722.184863
1641,1525.037109375,1609287722.18487
1642,1613.348876953125,1609287722.184876
1643,1361.3330078125,1609287722.184882
1644,1236.6995849609375,1609287722.184888
1645,1469.6942138671875,1609287722.184894
1646,1595.5345458984375,1609287722.1849
1647,1344.166748046875,1609287722.184906
1648,1171.92431640625,1609287722.184912
1649,1351.185302734375,1609287722.184918
1650,1575.1944580078125,1609287722.184924
1651,1405.00830078125,1609287722.18493
1652,1202.412109375,1609287722.184936
1653,1316.3612060546875,1609287722.184965
1654,1564.4208984375,1609287722.2446
1655,1470.4317626953125,1609287722.244622
1656,1189.850341796875,1609287722.244631
1657,1241.237060546875,1609287722.24464
1658,1520.8572998046875,1609287722.244654
1659,1488.9390869140625,1609287722.244661
1660,1213.4761962890625,1609287722.244668
1661,1252.7481689453125,1609287722.244675
1662,1546.472412109375,1609287722.244682
1663,1564.0408935546875,1609287722.244689
1664,1268.3497314453125,1609287722.244696
1665,1212.89501953125,1609287722.244704
1666,1479.8865966796875,1609287722.244711
1667,1599.7813720703125,1609287722.244718
1668,1351.878173828125,1609287722.244725
1669,1231.9163818359375,1609287722.304873
1670,1462.8992919921875,1609287722.304892
1671,1650.4527587890625,1609287722.3049
1672,1445.5096435546875,1609287722.304907
1673,1247.6072998046875,1609287722.304914
1674,1422.643798828125,1609287722.304922
1675,1647.7928466796875,1609287722.304929
1676,1507.401611328125,1609287722.304961
1677,1287.0357666015625,1609287722.304968
1678,1441.0616455078125,1609287722.304975
1679,1699.1572265625,1609287722.304983
1680,1643.5908203125,1609287722.30499
1681,1420.743896484375,1609287722.305002
1682,1483.708740234375,1609287722.305008
1683,1777.9918212890625,1609287722.305014
1684,1778.371826171875,1609287722.365162
1685,1535.8106689453125,1609287722.365178
1686,1513.101318359375,1609287722.365186
1687,1766.0335693359375,1609287722.365193
1688,1817.5096435546875,1609287722.3652
1689,1573.562744140625,1609287722.365207
1690,1495.309326171875,1609287722.365214
1691,1713.685791015625,1609287722.365221
1692,1829.57958984375,1609287722.365228
1693,1631.4090576171875,1609287722.365235
1694,1491.017822265625,1609287722.365242
1695,1667.305908203125,1609287722.36525
1696,1824.3045654296875,1609287722.365256
1697,1653.9620361328125,1609287722.365264
1698,1489.609619140625,1609287722.365271
1699,1639.9697265625,1609287722.425284
1700,1849.338623046875,1609287722.425302
1701,1739.189208984375,1609287722.425311
1702,1524.3218994140625,1609287722.425319
1703,1591.2877197265625,1609287722.425326
1704,1841.4036865234375,1609287722.425334
1705,1775.9130859375,1609287722.425342
1706,1527.384033203125,1609287722.425351
1707,1567.170166015625,1609287722.425359
1708,1830.2725830078125,1609287722.425368
1709,1843.5494384765625,1609287722.425376
1710,1592.51708984375,1609287722.425386
1711,1538.8504638671875,1609287722.425394
1712,1791.2911376953125,1609287722.425403
1713,1871.869140625,1609287722.425412
1714,1643.2108154296875,1609287722.48492
1715,1538.53759765625,1609287722.484936
1716,1748.3310546875,1609287722.484942
1717,1884.4307861328125,1609287722.484948
1718,1660.309814453125,1609287722.484954
1719,1514.4200439453125,1609287722.48496
1720,1719.698486328125,1609287722.484967
1721,1937.180908203125,1609287722.484973
1722,1777.9918212890625,1609287722.484979
1723,1562.7445068359375,1609287722.485007
1724,1686.349609375,1609287722.485013
1725,1908.0343017578125,1609287722.485019
1726,1820.1248779296875,1609287722.485025
1727,1599.446044921875,1609287722.485031
1728,1671.7315673828125,1609287722.485037
1729,1918.7630615234375,1609287722.545083
1730,1859.620361328125,1609287722.5451
1731,1623.49658203125,1609287722.545107
1732,1622.6025390625,1609287722.545115
1733,1874.6407470703125,1609287722.545124
1734,1907.9224853515625,1609287722.545132
1735,1657.560546875,1609287722.545139
1736,1577.2060546875,1609287722.545148
1737,1827.8585205078125,1609287722.545156
1738,1936.4656982421875,1609287722.545164
1739,1708.8131103515625,1609287722.545171
1740,1589.5218505859375,1609287722.545179
1741,1779.556396484375,1609287722.545187
1742,1955.6881103515625,1609287722.545194
1743,1747.973388671875,1609287722.545202
1744,1564.1527099609375,1609287722.604463
1745,1723.587646484375,1609287722.604481
1746,1915.186767578125,1609287722.604506
1747,1779.556396484375,1609287722.604514
1748,1538.7164306640625,1609287722.604521
1749,1637.3992919921875,1609287722.604529
1750,1883.4920654296875,1609287722.604537
1751,1809.2843017578125,1609287722.604544
1752,1582.548095703125,1609287722.604551
1753,1606.88916015625,1609287722.604559
1754,1864.9847412109375,1609287722.604567
1755,1883.1343994140625,1609287722.604575
1756,1639.7462158203125,1609287722.604583
1757,1623.541259765625,1609287722.604591
1758,1894.35498046875,1609287722.604598
1759,1937.7620849609375,1609287722.66411
1760,1674.5703125,1609287722.664127
1761,1592.1370849609375,1609287722.664134
1762,1823.634033203125,1609287722.664142
1763,1924.7757568359375,1609287722.66415
1764,1709.796630859375,1609287722.664157
1765,1592.561767578125,1609287722.664164
1766,1769.364013671875,1609287722.664172
1767,1925.2451171875,1609287722.664179
1768,1761.8538818359375,1609287722.664187
1769,1575.3509521484375,1609287722.664211
1770,1698.26318359375,1609287722.664219
1771,1880.921630859375,1609287722.664226
1772,1641.824951171875,1609287722.664234
1773,1253.3516845703125,1609287722.664241
1774,1178.249755859375,1609287722.724931
1775,1188.4869384765625,1609287722.724938
1776,861.7267456054688,1609287722.72494
1777,412.47906494140625,1609287722.724942
1778,277.16162109375,1609287722.724944
1779,538.878173828125,1609287722.724946
1780,961.9967041015625,1609287722.724948
1781,1563.5938720703125,1609287722.72495
1782,2112.5302734375,1609287722.724952
1783,2386.89794921875,1609287722.724954
1784,2306.029296875,1609287722.724956
1785,1922.898193359375,1609287722.724958
1786,1723.9229736328125,1609287722.72496
1787,1871.5784912109375,1609287722.724962
1788,1979.0457763671875,1609287722.724964
1789,1755.6400146484375,1609287722.78473
1790,1576.0885009765625,1609287722.784741
1791,1745.2017822265625,1609287722.784745
1792,1942.0535888671875,1609287722.784764
1793,1765.81005859375,1609287722.784768
1794,1560.8892822265625,1609287722.784772
1795,1677.118408203125,1609287722.784776
1796,1903.74267578125,1609287722.78478
1797,1792.7886962890625,1609287722.784784
1798,1554.0943603515625,1609287722.784788
1799,1630.69384765625,1609287722.784792
1800,1867.95751953125,1609287722.784796
1801,1817.330810546875,1609287722.7848
1802,1564.376220703125,1609287722.784804
1803,1555.1448974609375,1609287722.784808
1804,1797.19189453125,1609287722.844947
1805,1811.00537109375,1609287722.844962
1806,1548.9534912109375,1609287722.844968
1807,1479.5960693359375,1609287722.844974
1808,1732.4613037109375,1609287722.84498
1809,1816.0567626953125,1609287722.844986
1810,1583.71044921875,1609287722.844992
1811,1456.014892578125,1609287722.844998
1812,1654.4537353515625,1609287722.845004
1813,1791.2239990234375,1609287722.84501
1814,1607.8280029296875,1609287722.845016
1815,1412.7196044921875,1609287722.845022
1816,1584.068115234375,1609287722.845044
1817,1803.4281005859375,1609287722.84505
1818,1653.5596923828125,1609287722.845056
1819,1433.39501953125,1609287722.904209
1820,1534.290771484375,1609287722.904223
1821,1763.5302734375,1609287722.904247
1822,1655.727783203125,1609287722.904253
1823,1397.7215576171875,1609287722.904259
1824,1466.8779296875,1609287722.904265
1825,1719.094970703125,1609287722.904271
1826,1693.8822021484375,1609287722.904277
1827,1434.1102294921875,1609287722.904283
1828,1439.139404296875,1609287722.904289
1829,1701.2359619140625,1609287722.904295
1830,1749.314453125,1609287722.904301
1831,1496.5386962890625,1609287722.904307
1832,1406.058837890625,1609287722.904313
1833,1661.87451171875,1609287722.904319
1834,1776.0919189453125,1609287722.964032
1835,1554.72021484375,1609287722.964052
1836,1430.5562744140625,1609287722.964063
1837,1632.07958984375,1609287722.964075
1838,1798.39892578125,1609287722.964083
1839,1595.0875244140625,1609287722.964103
1840,1393.8770751953125,1609287722.96411
1841,1586.3255615234375,1609287722.964118
1842,1816.637939453125,1609287722.964126
1843,1681.6781005859375,1609287722.96414
1844,1421.548583984375,1609287722.964148
1845,1528.278076171875,1609287722.964156
1846,1786.9324951171875,1609287722.964164
1847,1731.589599609375,1609287722.964173
1848,1492.403564453125,1609287722.964181
1849,1530.289794921875,1609287723.024141
1850,1774.9295654296875,1609287723.024158
1851,1765.921875,1609287723.024165
1852,1532.1673583984375,1609287723.024172
1853,1512.3636474609375,1609287723.024179
1854,1782.1268310546875,1609287723.024186
1855,1868.918701171875,1609287723.024193
1856,1613.438232421875,1609287723.0242
1857,1496.0245361328125,1609287723.024207
1858,1717.9102783203125,1609287723.024214
1859,1872.204345703125,1609287723.024221
1860,1650.2962646484375,1609287723.024228
1861,1489.56494140625,1609287723.024235
1862,1701.012451171875,1609287723.024262
1863,1908.794189453125,1609287723.024269
1864,1725.6217041015625,1609287723.084447
1865,1510.6202392578125,1609287723.084466
1866,1626.89404296875,1609287723.084475
1867,1885.011962890625,1609287723.084483
1868,1773.4320068359375,1609287723.08449
1869,1525.6629638671875,1609287723.084497
1870,1619.048583984375,1609287723.084505
1871,1890.5328369140625,1609287723.084513
1872,1826.4727783203125,1609287723.084523
1873,1568.220703125,1609287723.084532
1874,1578.0330810546875,1609287723.084541
1875,1855.4853515625,1609287723.084551
1876,1873.6572265625,1609287723.084559
1877,1615.8299560546875,1609287723.084567
1878,1569.271240234375,1609287723.084575
1879,1842.9459228515625,1609287723.144714
1880,1922.697021484375,1609287723.144734
1881,1691.110595703125,1609287723.14474
1882,1580.2459716796875,1609287723.144746
1883,1794.643798828125,1609287723.144752
1884,1938.54443359375,1609287723.144758
1885,1763.664306640625,1609287723.144764
1886,1590.818359375,1609287723.144784
1887,1750.8121337890625,1609287723.14479
1888,1968.4510498046875,1609287723.144796
1889,1806.445556640625,1609287723.144802
1890,1610.9124755859375,1609287723.144808
1891,1751.974365234375,1609287723.144815
1892,1968.3392333984375,1609287723.144821
1893,1891.44921875,1609287723.144827
1894,1656.8006591796875,1609287723.204065
1895,1707.9637451171875,1609287723.204081
1896,1950.167236328125,1609287723.204088
1897,1919.2772216796875,1609287723.204094
1898,1670.1893310546875,1609287723.2041
1899,1685.3214111328125,1609287723.204106
1900,1931.190673828125,1609287723.204112
1901,1966.1934814453125,1609287723.204118
1902,1729.3096923828125,1609287723.204124
1903,1651.2574462890625,1609287723.20413
1904,1864.2471923828125,1609287723.204136
1905,1965.7911376953125,1609287723.204142
1906,1757.472900390625,1609287723.204148
1907,1597.054443359375,1609287723.204154
1908,1763.5302734375,1609287723.20416
1909,1903.6756591796875,1609287723.263802
1910,1741.6031494140625,1609287723.26383
1911,1563.3033447265625,1609287723.263837
1912,1707.293212890625,1609287723.263843
1913,1933.2022705078125,1609287723.263849
1914,1792.3863525390625,1609287723.263855
1915,1607.358642578125,1609287723.263861
1916,1740.9549560546875,1609287723.263867
1917,1965.2994384765625,1609287723.263873
1918,1882.910888671875,1609287723.263879
1919,1665.763671875,1609287723.263885
1920,1708.544921875,1609287723.263891
1921,1946.568603515625,1609287723.263897
1922,1934.1634521484375,1609287723.263904
1923,1665.7413330078125,1609287723.26391
1924,1629.240966796875,1609287723.324093
1925,1862.2579345703125,1609287723.324109
1926,1908.6824951171875,1609287723.324118
1927,1676.716064453125,1609287723.324125
1928,1632.19140625,1609287723.324132
1929,1863.1519775390625,1609287723.32414
1930,1969.009765625,1609287723.324147
1931,1679.912353515625,1609287723.324155
1932,1369.178466796875,1609287723.324183
1933,1351.475830078125,1609287723.324189
1934,1280.3302001953125,1609287723.324195
1935,875.6965942382812,1609287723.324201
1936,410.33331298828125,1609287723.324207
1937,360.55596923828125,1609287723.324214
1938,505.3729248046875,1609287723.32422
1939,632.0849609375,1609287723.384218
1940,1126.5726318359375,1609287723.384256
1941,1995.69775390625,1609287723.384264
1942,2455.718994140625,1609287723.384272
1943,2286.8740234375,1609287723.384279
1944,1911.2529296875,1609287723.384287
1945,1842.521240234375,1609287723.384294
1946,1993.4849853515625,1609287723.384302
1947,1956.8951416015625,1609287723.384309
1948,1694.6868896484375,1609287723.384316
1949,1618.847412109375,1609287723.384323
1950,1833.6700439453125,1609287723.384331
1951,1906.4249267578125,1609287723.384338
1952,1672.826904296875,1609287723.384345
1953,1582.6375732421875,1609287723.384353
1954,1812.18994140625,1609287723.444547
1955,1927.077880859375,1609287723.444578
1956,1698.0396728515625,1609287723.444584
1957,1564.6220703125,1609287723.44459
1958,1739.7032470703125,1609287723.444596
1959,1940.980712890625,1609287723.444602
1960,1763.2843017578125,1609287723.444608
1961,1562.4986572265625,1609287723.444614
1962,1662.031005859375,1609287723.44462
1963,1880.8544921875,1609287723.444626
1964,1776.4271240234375,1609287723.444632
1965,1556.2177734375,1609287723.444638
1966,1589.9241943359375,1609287723.444644
1967,1816.9732666015625,1609287723.444651
1968,1777.5001220703125,1609287723.444657
1969,1526.087646484375,1609287723.503437
1970,1528.881591796875,1609287723.503457
1971,1765.02783203125,1609287723.503465
1972,1797.59423828125,1609287723.503473
1973,1562.4091796875,1609287723.50348
1974,1484.021728515625,1609287723.503488
1975,1691.9376220703125,1609287723.503495
1976,1784.80908203125,1609287723.503502
1977,1547.3441162109375,1609287723.50351
1978,1428.432861328125,1609287723.503518
1979,1631.3643798828125,1609287723.503547
1980,1776.7847900390625,1609287723.503555
1981,1592.7181396484375,1609287723.503563
1982,1432.2103271484375,1609287723.503571
1983,1603.69287109375,1609287723.503579
1984,1790.19580078125,1609287723.503587
1985,1642.920166015625,1609287723.564524
1986,1439.139404296875,1609287723.564552
1987,1556.93310546875,1609287723.56456
1988,1777.41064453125,1609287723.564567
1989,1685.7237548828125,1609287723.564574
1990,1453.37744140625,1609287723.564582
1991,1516.34228515625,1609287723.564588
1992,1761.7197265625,1609287723.564596
1993,1741.379638671875,1609287723.564603
1994,1504.5181884765625,1609287723.56461
1995,1462.0946044921875,1609287723.564617
1996,1674.16796875,1609287723.564624
1997,1719.1619873046875,1609287723.564632
1998,1495.599853515625,1609287723.56464
1999,1419.3580322265625,1609287723.564647
2000,1619.1156005859375,1609287723.624773
2001,1723.0736083984375,1609287723.624789
2002,1516.8116455078125,1609287723.624815
2003,1375.8839111328125,1609287723.624823
2004,1560.0845947265625,1609287723.62483
2005,1744.3524169921875,1609287723.624838
2006,1610.3984375,1609287723.624844
2007,1448.68359375,1609287723.624852
2008,1598.8873291015625,1609287723.624859
2009,1809.5748291015625,1609287723.62487
2010,1705.3709716796875,1609287723.624876
2011,1478.120849609375,1609287723.624883
2012,1556.6201171875,1609287723.624889
2013,1783.8255615234375,1609287723.624895
2014,1738.473876953125,1609287723.624901
2015,1520.0750732421875,1609287723.684985
2016,1543.4996337890625,1609287723.685005
2017,1781.2327880859375,1609287723.685012
2018,1790.7322998046875,1609287723.68502
2019,1569.7852783203125,1609287723.685028
2020,1532.7037353515625,1609287723.685035
2021,1732.8189697265625,1609287723.685043
2022,1812.636962890625,1609287723.685051
2023,1608.945556640625,1609287723.685058
2024,1511.5589599609375,1609287723.685066
2025,1722.7606201171875,1609287723.685086
2026,1853.96533203125,1609287723.685094
2027,1654.319580078125,1609287723.685101
2028,1520.6561279296875,1609287723.685109
2029,1699.8277587890625,1609287723.685117
2030,1869.410400390625,1609287723.744384
2031,1708.6119384765625,1609287723.744394
2032,1532.9495849609375,1609287723.744398
2033,1654.1630859375,1609287723.744402
2034,1883.8944091796875,1609287723.744406
2035,1791.5816650390625,1609287723.74441
2036,1578.90478515625,1609287723.744414
2037,1653.827880859375,1609287723.744418
2038,1872.114990234375,1609287723.744422
2039,1850.925537109375,1609287723.744426
2040,1633.48779296875,1609287723.74443
2041,1625.932861328125,1609287723.744435
2042,1853.317138671875,1609287723.744439
2043,1861.6990966796875,1609287723.744443
2044,1638.226318359375,1609287723.744447
2045,1598.2166748046875,1609287723.804036
2046,1804.3221435546875,1609287723.804058
2047,1884.654296875,1609287723.804094
2048,1691.1776123046875,1609287723.804104
2049,1586.660888671875,1609287723.804109
2050,1806.1773681640625,1609287723.804114
2051,1944.2440185546875,1609287723.804119
2052,1769.766357421875,1609287723.804124
2053,1621.68603515625,1609287723.804129
2054,1777.254150390625,1609287723.804134
2055,1961.4549560546875,1609287723.804139
2056,1840.129638671875,1609287723.804144
2057,1625.28466796875,1609287723.804149
2058,1723.2747802734375,1609287723.804154
2059,1948.423828125,1609287723.804159
2060,1855.77587890625,1609287723.864344
2061,1621.7755126953125,1609287723.864362
2062,1673.720947265625,1609287723.864369
2063,1896.791259765625,1609287723.864374
2064,1860.5367431640625,1609287723.864379
2065,1626.7598876953125,1609287723.864384
2066,1617.640380859375,1609287723.864389
2067,1851.37255859375,1609287723.864394
2068,1898.0206298828125,1609287723.864399
2069,1701.1688232421875,1609287723.864405
2070,1633.934814453125,1609287723.864409
2071,1847.2152099609375,1609287723.864415
2072,1937.73974609375,1609287723.864447
2073,1734.1153564453125,1609287723.864453
2074,1604.8328857421875,1609287723.864457
2075,1796.163818359375,1609287723.92455
2076,1947.73095703125,1609287723.924564
2077,1813.732177734375,1609287723.924572
2078,1627.1622314453125,1609287723.924579
2079,1746.4534912109375,1609287723.924587
2080,1935.03515625,1609287723.924592
2081,1824.1258544921875,1609287723.924597
2082,1623.8541259765625,1609287723.924602
2083,1712.098876953125,1609287723.924609
2084,1898.199462890625,1609287723.924613
2085,1729.8685302734375,1609287723.924617
2086,1337.774169921875,1609287723.924621
2087,1139.4471435546875,1609287723.924625
2088,1116.5589599609375,1609287723.92463
2089,853.3672485351562,1609287723.924634
2090,402.80078125,1609287723.984854
2091,172.1307830810547,1609287723.984866
2092,430.583984375,1609287723.984872
2093,923.43994140625,1609287723.984878
2094,1564.175048828125,1609287723.984884
2095,2077.572265625,1609287723.984908
2096,2326.682373046875,1609287723.984914
2097,2296.6416015625,1609287723.98492
2098,1953.2965087890625,1609287723.984926
2099,1734.5623779296875,1609287723.984932
2100,1825.042236328125,1609287723.984938
2101,1961.8572998046875,1609287723.984944
2102,1810.357177734375,1609287723.98495
2103,1610.5101318359375,1609287723.984956
2104,1701.593505859375,1609287723.984962
2105,1920.193603515625,1609287724.043618
2106,1825.8245849609375,1609287724.04363
2107,1592.89697265625,1609287724.043636
2108,1669.317626953125,1609287724.043642
2109,1884.5872802734375,1609287724.043648
2110,1814.4698486328125,1609287724.043654
2111,1579.30712890625,1609287724.043661
2112,1585.2080078125,1609287724.043667
2113,1792.40869140625,1609287724.043673
2114,1811.0947265625,1609287724.043679
2115,1585.2303466796875,1609287724.043685
2116,1546.33837890625,1609287724.043691
2117,1734.674072265625,1609287724.043697
2118,1810.558349609375,1609287724.043716
2119,1607.157470703125,1609287724.043722
2120,1488.313232421875,1609287724.103944
2121,1673.7432861328125,1609287724.103955
2122,1816.7720947265625,1609287724.103961
2123,1637.242919921875,1609287724.103967
2124,1473.96337890625,1609287724.103973
2125,1585.655029296875,1609287724.103979
2126,1772.716796875,1609287724.103985
2127,1652.46435546875,1609287724.103992
2128,1465.55908203125,1609287724.103998
2129,1560.6434326171875,1609287724.104004
2130,1759.4844970703125,1609287724.10401
2131,1675.4420166015625,1609287724.104016
2132,1451.36572265625,1609287724.104022
2133,1500.4501953125,1609287724.104028
2134,1723.6546630859375,1609287724.104034
2135,1687.4449462890625,1609287724.164093
2136,1450.337646484375,1609287724.164106
2137,1449.5552978515625,1609287724.164112
2138,1670.725830078125,1609287724.164119
2139,1727.096923828125,1609287724.164125
2140,1502.640625,1609287724.164131
2141,1446.7613525390625,1609287724.164137
2142,1655.615966796875,1609287724.164156
2143,1764.759521484375,1609287724.164162
2144,1571.171142578125,1609287724.164168
2145,1452.036376953125,1609287724.164174
2146,1629.7103271484375,1609287724.16418
2147,1773.923828125,1609287724.164187
2148,1584.5374755859375,1609287724.164193
2149,1422.531982421875,1609287724.164199
2150,1552.3062744140625,1609287724.224366
2151,1724.43701171875,1609287724.224381
2152,1583.7774658203125,1609287724.224388
2153,1392.0889892578125,1609287724.224396
2154,1489.36376953125,1609287724.224405
2155,1704.3651123046875,1609287724.224412
2156,1649.46923828125,1609287724.224418
2157,1427.091796875,1609287724.224424
2158,1443.4085693359375,1609287724.22443
2159,1703.9627685546875,1609287724.224436
2160,1706.9580078125,1609287724.224442
2161,1499.9808349609375,1609287724.224448
2162,1485.7427978515625,1609287724.224455
2163,1700.207763671875,1609287724.224461
2164,1778.5953369140625,1609287724.224467
2165,1549.9593505859375,1609287724.28483
2166,1465.916748046875,1609287724.284847
2167,1673.8773193359375,1609287724.284853
2168,1764.513671875,1609287724.284859
2169,1575.9320068359375,1609287724.284865
2170,1488.4696044921875,1609287724.284871
2171,1645.0435791015625,1609287724.284877
2172,1816.50390625,1609287724.284883
2173,1657.47119140625,1609287724.284889
2174,1487.508544921875,1609287724.284895
2175,1593.142822265625,1609287724.284901
2176,1793.950927734375,1609287724.284907
2177,1710.04248046875,1609287724.284914
2178,1505.300537109375,1609287724.28492
2179,1563.5491943359375,1609287724.284926
2180,1776.2484130859375,1609287724.343401
2181,1765.318359375,1609287724.343409
2182,1554.4520263671875,1609287724.343413
2183,1569.8524169921875,1609287724.343416
2184,1802.51171875,1609287724.343419
2185,1812.3240966796875,1609287724.343422
2186,1598.8873291015625,1609287724.343425
2187,1566.1419677734375,1609287724.343428
2188,1788.60888671875,1609287724.343439
2189,1856.133544921875,1609287724.343442
2190,1627.743408203125,1609287724.343445
2191,1537.0177001953125,1609287724.343448
2192,1756.22119140625,1609287724.343451
2193,1888.6552734375,1609287724.343454
2194,1708.1202392578125,1609287724.343457
2195,1588.71728515625,1609287724.403551
2196,1722.82763671875,1609287724.403559
2197,1889.616455078125,1609287724.403562
2198,1759.7081298828125,1609287724.403564
2199,1559.0565185546875,1609287724.403567
2200,1666.814208984375,1609287724.403569
2201,1882.6650390625,1609287724.403572
2202,1810.8712158203125,1609287724.403574
2203,1610.957275390625,1609287724.403577
2204,1675.218505859375,1609287724.403579
2205,1894.2879638671875,1609287724.403582
2206,1844.4434814453125,1609287724.403585
2207,1616.053466796875,1609287724.403588
2208,1626.89404296875,1609287724.403591
2209,1844.2423095703125,1609287724.403593
2210,1881.100341796875,1609287724.463904
2211,1652.4420166015625,1609287724.463968
2212,1584.246826171875,1609287724.463974
2213,1794.643798828125,1609287724.46398
2214,1880.407470703125,1609287724.463986
2215,1702.8228759765625,1609287724.463992
2216,1575.1944580078125,1609287724.463998
2217,1777.254150390625,1609287724.464004
2218,1931.481201171875,1609287724.46401
2219,1740.5972900390625,1609287724.464017
2220,1596.048583984375,1609287724.464023
2221,1737.22216796875,1609287724.464029
2222,1917.8466796875,1609287724.464036
2223,1780.31640625,1609287724.464042
2224,1575.7308349609375,1609287724.464049
2225,1697.1455078125,1609287724.524084
2226,1923.6357421875,1609287724.524099
2227,1858.9498291015625,1609287724.524105
2228,1640.7967529296875,1609287724.524111
2229,1676.1348876953125,1609287724.524118
2230,1871.8914794921875,1609287724.524124
2231,1866.2364501953125,1609287724.52413
2232,1651.88330078125,1609287724.524137
2233,1574.72509765625,1609287724.524143
2234,1683.108642578125,1609287724.524149
2235,1548.3946533203125,1609287724.524173
2236,1115.3072509765625,1609287724.524179
2237,771.8727416992188,1609287724.524185
2238,691.607666015625,1609287724.524191
2239,567.9130859375,1609287724.524197
2240,246.0926971435547,1609287724.587398
2241,266.4104309082031,1609287724.587411
2242,1052.431884765625,1609287724.587417
2243,2079.583984375,1609287724.587423
2244,2296.217041015625,1609287724.587429
2245,2050.9736328125,1609287724.587435
2246,2009.6005859375,1609287724.587441
2247,2078.86865234375,1609287724.58745
2248,1887.8729248046875,1609287724.587463
2249,1644.730712890625,1609287724.587475
2250,1681.0745849609375,1609287724.587483
2251,1862.9954833984375,1609287724.58749
2252,1818.2696533203125,1609287724.587499
2253,1587.71142578125,1609287724.587506
2254,1620.8590087890625,1609287724.587513
2255,1849.2044677734375,1609287724.644335
2256,1853.115966796875,1609287724.644351
2257,1619.540283203125,1609287724.644358
2258,1564.778564453125,1609287724.644457
2259,1770.9957275390625,1609287724.644465
2260,1849.5621337890625,1609287724.644472
2261,1624.1671142578125,1609287724.644479
2262,1518.4210205078125,1609287724.644487
2263,1694.4410400390625,1609287724.644494
2264,1825.5562744140625,1609287724.644502
2265,1624.5023193359375,1609287724.644509
2266,1477.6513671875,1609287724.644517
2267,1636.3935546875,1609287724.644525
2268,1805.350341796875,1609287724.644532
2269,1651.436279296875,1609287724.64454
2270,1487.9332275390625,1609287724.703427
2271,1586.549072265625,1609287724.703443
2272,1774.6837158203125,1609287724.703448
2273,1680.8287353515625,1609287724.703452
2274,1481.8311767578125,1609287724.703456
2275,1496.8292236328125,1609287724.70346
2276,1728.5498046875,1609287724.703464
2277,1711.7412109375,1609287724.703468
2278,1463.56982421875,1609287724.703472
2279,1458.7864990234375,1609287724.703476
2280,1658.8345947265625,1609287724.70348
2281,1694.552734375,1609287724.703495
2282,1468.57666015625,1609287724.703499
2283,1411.333740234375,1609287724.703503
2284,1636.6617431640625,1609287724.703507
2285,1722.2689208984375,1609287724.763729
2286,1509.4580078125,1609287724.763745
2287,1400.80615234375,1609287724.763749
2288,1595.19921875,1609287724.763752
2289,1739.2562255859375,1609287724.763757
2290,1578.12255859375,1609287724.76376
2291,1426.1529541015625,1609287724.763764
2292,1581.452880859375,1609287724.763767
2293,1753.673095703125,1609287724.76377
2294,1624.88232421875,1609287724.763774
2295,1426.6224365234375,1609287724.763777
2296,1532.189697265625,1609287724.763781
2297,1742.1173095703125,1609287724.763784
2298,1663.6849365234375,1609287724.763789
2299,1438.625244140625,1609287724.763803
2300,1457.9371337890625,1609287724.824032
2301,1658.3428955078125,1609287724.824039
2302,1631.9007568359375,1609287724.824042
2303,1403.2647705078125,1609287724.824044
2304,1402.9295654296875,1609287724.824056
2305,1629.6656494140625,1609287724.824058
2306,1705.9298095703125,1609287724.824061
2307,1489.0284423828125,1609287724.824063
2308,1420.69921875,1609287724.824065
2309,1632.59375,1609287724.824067
2310,1720.4583740234375,1609287724.82407
2311,1549.33349609375,1609287724.824072
2312,1448.8399658203125,1609287724.824074
2313,1616.6121826171875,1609287724.824077
2314,1778.81884765625,1609287724.824079
2315,1607.4033203125,1609287724.883402
2316,1459.926513671875,1609287724.88342
2317,1587.80078125,1609287724.883428
2318,1779.7352294921875,1609287724.883435
2319,1679.800537109375,1609287724.883443
2320,1488.9837646484375,1609287724.883451
2321,1573.2498779296875,1609287724.883459
2322,1785.1444091796875,1609287724.883467
2323,1731.03076171875,1609287724.883476
2324,1503.802978515625,1609287724.883484
2325,1543.5443115234375,1609287724.883491
2326,1781.2998046875,1609287724.8835
2327,1786.1278076171875,1609287724.88351
2328,1591.3994140625,1609287724.88353
2329,1558.9447021484375,1609287724.883539
2330,1757.4505615234375,1609287724.94305
2331,1837.6038818359375,1609287724.943064
2332,1621.2166748046875,1609287724.94307
2333,1536.481201171875,1609287724.943076
2334,1717.3739013671875,1609287724.943082
2335,1841.3590087890625,1609287724.943088
2336,1682.818115234375,1609287724.943095
2337,1559.1011962890625,1609287724.943101
2338,1706.44384765625,1609287724.943107
2339,1895.15966796875,1609287724.943113
2340,1753.3602294921875,1609287724.943119
2341,1577.6754150390625,1609287724.943125
2342,1667.216552734375,1609287724.943131
2343,1872.4949951171875,1609287724.943137
2344,1805.4173583984375,1609287724.943144
2345,1611.5606689453125,1609287725.00333
2346,1684.8297119140625,1609287725.003341
2347,1903.7203369140625,1609287725.003347
2348,1861.8555908203125,1609287725.003353
2349,1658.27587890625,1609287725.003359
2350,1654.2525634765625,1609287725.003365
2351,1864.2918701171875,1609287725.003393
2352,1875.6689453125,1609287725.003399
2353,1662.5450439453125,1609287725.003405
2354,1633.3759765625,1609287725.003412
2355,1806.7808837890625,1609287725.003419
2356,1872.6514892578125,1609287725.003427
2357,1677.6324462890625,1609287725.003434
2358,1568.377197265625,1609287725.003442
2359,1762.5914306640625,1609287725.003449
2360,1900.9710693359375,1609287725.063666
2361,1744.978271484375,1609287725.063682
2362,1570.567626953125,1609287725.063689
2363,1723.2076416015625,1609287725.063695
2364,1934.9010009765625,1609287725.063701
2365,1836.7991943359375,1609287725.063707
2366,1650.5869140625,1609287725.063713
2367,1740.03857421875,1609287725.063719
2368,1929.6036376953125,1609287725.063725
2369,1841.135498046875,1609287725.063731
2370,1654.4984130859375,1609287725.063737
2371,1712.45654296875,1609287725.063743
2372,1917.4443359375,1609287725.06375
2373,1887.1800537109375,1609287725.063756
2374,1684.44970703125,1609287725.063783
2375,1674.771484375,1609287725.123758
2376,1892.097412109375,1609287725.123774
2377,1910.6270751953125,1609287725.123781
2378,1718.3572998046875,1609287725.123788
2379,1661.87451171875,1609287725.123796
2380,1836.128662109375,1609287725.123803
2381,1821.734130859375,1609287725.123811
2382,1473.3822021484375,1609287725.123818
2383,1172.30419921875,1609287725.123825
2384,1087.702880859375,1609287725.123832
2385,949.9044189453125,1609287725.12384
2386,519.990966796875,1609287725.123848
2387,161.31253051757812,1609287725.123856
2388,304.5648498535156,1609287725.123863
2389,892.7957153320312,1609287725.123871
2390,1598.0826416015625,1609287725.183178
2391,2043.3070068359375,1609287725.183195
2392,2243.39990234375,1609287725.183201
2393,2342.999267578125,1609287725.183207
2394,2112.64208984375,1609287725.183214
2395,1752.9578857421875,1609287725.18322
2396,1735.1212158203125,1609287725.183226
2397,1992.166259765625,1609287725.183232
2398,1985.1925048828125,1609287725.18326
2399,1683.8238525390625,1609287725.183266
2400,1636.8629150390625,1609287725.183272
2401,1895.2713623046875,1609287725.183279
2402,1941.383056640625,1609287725.183285
2403,1668.311767578125,1609287725.183291
2404,1563.4373779296875,1609287725.183297
2405,1820.8624267578125,1609287725.242885
2406,1929.2684326171875,1609287725.242905
2407,1692.093994140625,1609287725.242912
2408,1533.6649169921875,1609287725.242919
2409,1738.585693359375,1609287725.242926
2410,1921.601806640625,1609287725.242933
2411,1732.885986328125,1609287725.24294
2412,1525.975830078125,1609287725.242948
2413,1638.539306640625,1609287725.242954
2414,1870.7291259765625,1609287725.242961
2415,1747.5933837890625,1609287725.242969
2416,1517.3258056640625,1609287725.242976
2417,1582.257568359375,1609287725.242983
2418,1829.1102294921875,1609287725.24299
2419,1775.42138671875,1609287725.242997
2420,1518.599853515625,1609287725.303059
2421,1549.3558349609375,1609287725.303096
2422,1812.3240966796875,1609287725.303103
2423,1825.77978515625,1609287725.30311
2424,1528.5015869140625,1609287725.303117
2425,1490.503662109375,1609287725.303124
2426,1765.877197265625,1609287725.30313
2427,1821.5106201171875,1609287725.303137
2428,1560.3529052734375,1609287725.303144
2429,1434.4007568359375,1609287725.303151
2430,1658.119384765625,1609287725.303158
2431,1789.547607421875,1609287725.303164
2432,1586.2138671875,1609287725.303172
2433,1428.6787109375,1609287725.303179
2434,1628.749267578125,1609287725.303186
2435,1847.617431640625,1609287725.363586
2436,1693.65869140625,1609287725.363606
2437,1485.206298828125,1609287725.363612
2438,1611.203125,1609287725.363619
2439,1846.1646728515625,1609287725.363626
2440,1738.093994140625,1609287725.363633
2441,1479.9984130859375,1609287725.36364
2442,1538.9622802734375,1609287725.363647
2443,1805.640869140625,1609287725.363654
2444,1765.9888916015625,1609287725.363691
2445,1464.4415283203125,1609287725.363698
2446,1465.0673828125,1609287725.363705
2447,1732.6177978515625,1609287725.363712
2448,1744.575927734375,1609287725.363719
2449,1488.849609375,1609287725.363726
2450,1407.243408203125,1609287725.423041
2451,1665.96484375,1609287725.423057
2452,1755.1929931640625,1609287725.423063
2453,1491.8447265625,1609287725.42307
2454,1413.2113037109375,1609287725.423076
2455,1643.4119873046875,1609287725.423082
2456,1811.944091796875,1609287725.423088
2457,1638.8968505859375,1609287725.423094
2458,1451.522216796875,1609287725.4231
2459,1629.9114990234375,1609287725.423106
2460,1850.4561767578125,1609287725.423112
2461,1703.493408203125,1609287725.423118
2462,1466.9896240234375,1609287725.423125
2463,1605.838623046875,1609287725.423131
2464,1844.2423095703125,1609287725.423137
2465,1780.20458984375,1609287725.483484
2466,1544.7960205078125,1609287725.483501
2467,1579.70947265625,1609287725.483529
2468,1802.444580078125,1609287725.483535
2469,1785.6807861328125,1609287725.483541
2470,1570.52294921875,1609287725.483547
2471,1547.4112548828125,1609287725.483553
2472,1761.9432373046875,1609287725.483559
2473,1847.9080810546875,1609287725.483565
2474,1626.49169921875,1609287725.483571
2475,1554.072021484375,1609287725.483577
2476,1773.2979736328125,1609287725.483583
2477,1865.6329345703125,1609287725.483589
2478,1674.3468017578125,1609287725.483596
2479,1550.4287109375,1609287725.483602
2480,1744.3970947265625,1609287725.483608
2481,1919.9254150390625,1609287725.543477
2482,1728.9296875,1609287725.543486
2483,1571.0369873046875,1609287725.543492
2484,1736.372802734375,1609287725.543498
2485,1945.8533935546875,1609287725.543504
2486,1830.8089599609375,1609287725.54351
2487,1602.239990234375,1609287725.543517
2488,1694.999755859375,1609287725.543523
2489,1945.2275390625,1609287725.543529
2490,1866.7952880859375,1609287725.543535
2491,1614.9134521484375,1609287725.543556
2492,1649.826904296875,1609287725.543563
2493,1944.8475341796875,1609287725.543569
2494,1956.2916259765625,1609287725.543575
2495,1700.1854248046875,1609287725.543581
2496,1682.7957763671875,1609287725.603246
2497,1925.9156494140625,1609287725.603261
2498,1965.478271484375,1609287725.603267
2499,1718.24560546875,1609287725.603274
2500,1622.7142333984375,1609287725.60328
2501,1870.818603515625,1609287725.603286
2502,1985.5948486328125,1609287725.603292
2503,1758.7022705078125,1609287725.603298
2504,1590.259521484375,1609287725.603304
2505,1771.666259765625,1609287725.60331
2506,1976.564697265625,1609287725.603316
2507,1788.8323974609375,1609287725.603323
2508,1573.0933837890625,1609287725.603329
2509,1741.089111328125,1609287725.603335
2510,2001.3751220703125,1609287725.603341
2511,1880.206298828125,1609287725.663934
2512,1652.375,1609287725.663953
2513,1726.44873046875,1609287725.663961
2514,1968.3839111328125,1609287725.663982
2515,1935.8175048828125,1609287725.66399
2516,1693.7703857421875,1609287725.663997
2517,1694.5303955078125,1609287725.664005
2518,1936.53271484375,1609287725.664012
2519,1959.666748046875,1609287725.66402
2520,1723.9453125,1609287725.664027
2521,1651.123291015625,1609287725.664035
2522,1875.8477783203125,1609287725.664043
2523,1948.8038330078125,1609287725.66405
2524,1748.487548828125,1609287725.664058
2525,1643.6131591796875,1609287725.664066
2526,1775.5777587890625,1609287725.723664
2527,1812.9722900390625,1609287725.723679
2528,1442.7603759765625,1609287725.723685
2529,1072.97314453125,1609287725.723692
2530,977.061767578125,1609287725.723698
2531,866.1077270507812,1609287725.723704
2532,479.84722900390625,1609287725.72371
2533,157.80331420898438,1609287725.723716
2534,393.1001281738281,1609287725.723722
2535,1188.755126953125,1609287725.723728
2536,1956.5599365234375,1609287725.723734
2537,2174.109375,1609287725.723759
2538,2211.19091796875,1609287725.723765
2539,2281.8447265625,1609287725.723771
2540,2116.374755859375,1609287725.723777
2541,1795.80615234375,1609287725.783995
2542,1729.8013916015625,1609287725.784017
2543,1948.93798828125,1609287725.784025
2544,1972.653076171875,1609287725.784033
2545,1721.397216796875,1609287725.78404
2546,1634.69482421875,1609287725.784048
2547,1834.98876953125,1609287725.784055
2548,1938.589111328125,1609287725.784063
2549,1777.4329833984375,1609287725.78407
2550,1644.328369140625,1609287725.784078
2551,1799.8294677734375,1609287725.784086
2552,1911.6104736328125,1609287725.784093
2553,1749.82861328125,1609287725.784101
2554,1594.4393310546875,1609287725.784109
2555,1726.493408203125,1609287725.784117
2556,1900.099365234375,1609287725.843076
2557,1787.558349609375,1609287725.843085
2558,1557.4918212890625,1609287725.843088
2559,1628.1904296875,1609287725.843105
2560,1845.941162109375,1609287725.843112
2561,1778.9976806640625,1609287725.843116
2562,1573.40625,1609287725.84312
2563,1598.0379638671875,1609287725.843123
2564,1824.1033935546875,1609287725.843127
2565,1792.3416748046875,1609287725.843131
2566,1568.2430419921875,1609287725.843135
2567,1531.4296875,1609287725.843138
2568,1777.8800048828125,1609287725.843142
2569,1834.4075927734375,1609287725.843147
2570,1597.7696533203125,1609287725.84315
2571,1493.0517578125,1609287725.902878
2572,1692.6751708984375,1609287725.902898
2573,1808.59130859375,1609287725.902902
2574,1616.545166015625,1609287725.902906
2575,1499.9808349609375,1609287725.90291
2576,1676.2913818359375,1609287725.902914
2577,1817.8226318359375,1609287725.902917
2578,1676.6490478515625,1609287725.902921
2579,1512.34130859375,1609287725.902925
2580,1633.7783203125,1609287725.90293
2581,1809.5078125,1609287725.902933
2582,1719.5419921875,1609287725.902938
2583,1535.274169921875,1609287725.902942
2584,1628.525634765625,1609287725.902959
2585,1846.0751953125,1609287725.902963
2586,1787.3348388671875,1609287725.963213
2587,1557.380126953125,1609287725.963223
2588,1577.5413818359375,1609287725.963226
2589,1817.733154296875,1609287725.96323
2590,1824.438720703125,1609287725.963233
2591,1561.6939697265625,1609287725.963236
2592,1489.96728515625,1609287725.963241
2593,1717.1727294921875,1609287725.963244
2594,1776.3377685546875,1609287725.96325
2595,1570.768798828125,1609287725.963254
2596,1467.011962890625,1609287725.963257
2597,1645.87060546875,1609287725.963266
2598,1771.6885986328125,1609287725.963269
2599,1577.451904296875,1609287725.963272
2600,1466.922607421875,1609287725.963275
2601,1665.607177734375,1609287726.02374
2602,1847.9527587890625,1609287726.02375
2603,1713.395263671875,1609287726.023753
2604,1545.93603515625,1609287726.023756
2605,1642.27197265625,1609287726.023759
2606,1839.637939453125,1609287726.023762
2607,1775.82373046875,1609287726.023776
2608,1590.6842041015625,1609287726.023779
2609,1669.9658203125,1609287726.023782
2610,1887.6494140625,1609287726.023785
2611,1805.3056640625,1609287726.023788
2612,1593.947509765625,1609287726.023791
2613,1604.49755859375,1609287726.023794
2614,1808.054931640625,1609287726.023797
2615,1833.7593994140625,1609287726.0238
2616,1624.2117919921875,1609287726.083665
2617,1613.8629150390625,1609287726.083674
2618,1806.19970703125,1609287726.083676
2619,1885.101318359375,1609287726.083679
2620,1704.65576171875,1609287726.083681
2621,1605.1680908203125,1609287726.083684
2622,1770.21337890625,1609287726.083686
2623,1888.811767578125,1609287726.083688
2624,1745.0006103515625,1609287726.083691
2625,1631.2525634765625,1609287726.083693
2626,1769.8333740234375,1609287726.083696
2627,1930.587158203125,1609287726.083698
2628,1790.4417724609375,1609287726.083701
2629,1615.8299560546875,1609287726.083703
2630,1715.5633544921875,1609287726.083722
2631,1925.982666015625,1609287726.142794
2632,1853.1383056640625,1609287726.142802
2633,1637.444091796875,1609287726.142805
2634,1691.8258056640625,1609287726.14281
2635,1910.202392578125,1609287726.142814
2636,1903.13916015625,1609287726.142817
2637,1711.003662109375,1609287726.14282
2638,1696.6314697265625,1609287726.142823
2639,1921.53466796875,1609287726.14283
2640,1976.072998046875,1609287726.142836
2641,1754.678955078125,1609287726.142843
2642,1687.7354736328125,1609287726.142848
2643,1873.27734375,1609287726.142854
2644,1978.9339599609375,1609287726.142862
2645,1788.5865478515625,1609287726.142867
2646,1661.0474853515625,1609287726.202666
2647,1820.7283935546875,1609287726.202672
2648,1970.6414794921875,1609287726.202674
2649,1793.79443359375,1609287726.202676
2650,1624.2564697265625,1609287726.202679
2651,1766.1453857421875,1609287726.202681
2652,1942.075927734375,1609287726.202684
2653,1845.2481689453125,1609287726.202686
2654,1651.2127685546875,1609287726.202694
2655,1732.3494873046875,1609287726.202696
2656,1957.9903564453125,1609287726.202699
2657,1898.5347900390625,1609287726.202701
2658,1715.85400390625,1609287726.202703
2659,1748.9345703125,1609287726.202705
2660,1974.5306396484375,1609287726.202707
2661,1977.659912109375,1609287726.262843
2662,1733.288330078125,1609287726.26285
2663,1706.9580078125,1609287726.262852
2664,1929.9613037109375,1609287726.262854
2665,1994.557861328125,1609287726.262857
2666,1788.8770751953125,1609287726.262859
2667,1694.552734375,1609287726.262861
2668,1880.8321533203125,1609287726.262863
2669,1987.8746337890625,1609287726.262865
2670,1774.5943603515625,1609287726.262867
2671,1583.017578125,1609287726.262869
2672,1610.733642578125,1609287726.262871
2673,1608.945556640625,1609287726.262873
2674,1221.947509765625,1609287726.262875
2675,754.8407592773438,1609287726.262878
2676,581.8829345703125,1609287726.32321
2677,599.2725830078125,1609287726.323238
2678,465.1844787597656,1609287726.323245
2679,489.7490539550781,1609287726.323251
2680,1264.2369384765625,1609287726.323257
2681,2308.219970703125,1609287726.323263
2682,2448.1640625,1609287726.323269
2683,2121.515869140625,1609287726.323275
2684,1992.70263671875,1609287726.323281
2685,2112.105712890625,1609287726.323287
2686,2073.526611328125,1609287726.323292
2687,1799.091796875,1609287726.323299
2688,1700.9229736328125,1609287726.323305
2689,1896.009033203125,1609287726.323311
2690,1976.7435302734375,1609287726.323317
2691,1749.02392578125,1609287726.383387
2692,1659.86279296875,1609287726.383397
2693,1832.239501953125,1609287726.383402
2694,1971.177978515625,1609287726.383405
2695,1786.3289794921875,1609287726.383409
2696,1614.041748046875,1609287726.383413
2697,1751.4603271484375,1609287726.383419
2698,1944.4451904296875,1609287726.383422
2699,1804.3221435546875,1609287726.383425
2700,1601.860107421875,1609287726.383435
2701,1688.5848388671875,1609287726.383438
2702,1904.6143798828125,1609287726.383442
2703,1811.541748046875,1609287726.383445
2704,1575.775634765625,1609287726.383448
2705,1630.49267578125,1609287726.383451
2706,1854.1441650390625,1609287726.442276
2707,1826.4951171875,1609287726.442282
2708,1570.3441162109375,1609287726.442284
2709,1544.7513427734375,1609287726.442286
2710,1754.61181640625,1609287726.442289
2711,1801.4835205078125,1609287726.442291
2712,1567.6842041015625,1609287726.442293
2713,1488.4920654296875,1609287726.442296
2714,1693.614013671875,1609287726.442298
2715,1806.646728515625,1609287726.4423
2716,1600.362548828125,1609287726.442303
2717,1466.16259765625,1609287726.442305
2718,1645.021240234375,1609287726.442307
2719,1799.20361328125,1609287726.44231
2720,1642.9425048828125,1609287726.442312
2721,1479.417236328125,1609287726.502526
2722,1629.0174560546875,1609287726.502539
2723,1800.20947265625,1609287726.502559
2724,1670.524658203125,1609287726.502565
2725,1466.0732421875,1609287726.502571
2726,1558.162353515625,1609287726.502577
2727,1779.39990234375,1609287726.502583
2728,1713.4622802734375,1609287726.502589
2729,1528.6134033203125,1609287726.502595
2730,1591.1759033203125,1609287726.502601
2731,1812.949951171875,1609287726.502607
2732,1789.2347412109375,1609287726.502614
2733,1570.12060546875,1609287726.50262
2734,1536.3470458984375,1609287726.502626
2735,1736.2164306640625,1609287726.502632
2736,1784.6302490234375,1609287726.562775
2737,1562.431640625,1609287726.562787
2738,1480.55712890625,1609287726.562793
2739,1687.020263671875,1609287726.562799
2740,1797.1695556640625,1609287726.562805
2741,1615.986328125,1609287726.562811
2742,1466.4532470703125,1609287726.562817
2743,1653.336181640625,1609287726.562823
2744,1818.448486328125,1609287726.56283
2745,1677.1630859375,1609287726.562835
2746,1521.6173095703125,1609287726.562841
2747,1645.9600830078125,1609287726.562862
2748,1852.7584228515625,1609287726.562868
2749,1766.927734375,1609287726.562874
2750,1569.1817626953125,1609287726.56288
2751,1629.1739501953125,1609287726.623051
2752,1840.621337890625,1609287726.623064
2753,1813.0169677734375,1609287726.62307
2754,1603.0,1609287726.623076
2755,1621.68603515625,1609287726.623082
2756,1842.141357421875,1609287726.623088
2757,1850.120849609375,1609287726.623094
2758,1647.5916748046875,1609287726.6231
2759,1590.8406982421875,1609287726.623106
2760,1791.3358154296875,1609287726.623112
2761,1871.869140625,1609287726.623118
2762,1664.4896240234375,1609287726.623124
2763,1582.659912109375,1609287726.62313
2764,1787.156005859375,1609287726.623136
2765,1899.25,1609287726.623142
2766,1692.04931640625,1609287726.682422
2767,1564.6220703125,1609287726.682435
2768,1706.7344970703125,1609287726.682441
2769,1895.4725341796875,1609287726.682448
2770,1749.9627685546875,1609287726.682468
2771,1568.2430419921875,1609287726.682475
2772,1701.25830078125,1609287726.682482
2773,1937.4044189453125,1609287726.682492
2774,1860.7379150390625,1609287726.682499
2775,1641.936767578125,1609287726.682507
2776,1688.316650390625,1609287726.682514
2777,1909.0400390625,1609287726.682524
2778,1887.4930419921875,1609287726.682534
2779,1676.67138671875,1609287726.682541
2780,1660.622802734375,1609287726.682549
2781,1893.14794921875,1609287726.742145
2782,1924.4627685546875,1609287726.742159
2783,1717.3739013671875,1609287726.742166
2784,1688.5401611328125,1609287726.742172
2785,1880.6309814453125,1609287726.742178
2786,1966.1934814453125,1609287726.742184
2787,1766.6817626953125,1609287726.74219
2788,1675.7996826171875,1609287726.742196
2789,1860.55908203125,1609287726.742202
2790,1981.6832275390625,1609287726.742207
2791,1809.6641845703125,1609287726.742213
2792,1650.3634033203125,1609287726.74222
2793,1827.38916015625,1609287726.742242
2794,2056.114501953125,1609287726.742248
2795,1893.2821044921875,1609287726.742254
2796,1649.1563720703125,1609287726.802387
2797,1744.1065673828125,1609287726.802402
2798,2029.538330078125,1609287726.802408
2799,1910.8729248046875,1609287726.802415
2800,1649.1787109375,1609287726.802421
2801,1722.000732421875,1609287726.802427
2802,1997.6871337890625,1609287726.802433
2803,2000.749267578125,1609287726.802439
2804,1715.4739990234375,1609287726.802445
2805,1676.0455322265625,1609287726.802452
2806,1978.1964111328125,1609287726.802458
2807,2048.984375,1609287726.802464
2808,1756.981201171875,1609287726.802471
2809,1650.8997802734375,1609287726.802477
2810,1892.700927734375,1609287726.802483
2811,2031.0135498046875,1609287726.862681
2812,1778.3270263671875,1609287726.862698
2813,1622.043701171875,1609287726.862704
2814,1862.9061279296875,1609287726.86271
2815,2049.3642578125,1609287726.862716
2816,1828.730224609375,1609287726.862744
2817,1580.71533203125,1609287726.86275
2818,1605.2799072265625,1609287726.862756
2819,1645.49072265625,1609287726.862762
2820,1285.8287353515625,1609287726.862768
2821,766.865966796875,1609287726.862774
2822,588.61083984375,1609287726.86278
2823,672.5863037109375,1609287726.862786
2824,491.1572265625,1609287726.862792
2825,303.53668212890625,1609287726.862798
2826,867.3370361328125,1609287726.923016
2827,2035.1710205078125,1609287726.923025
2828,2470.9853515625,1609287726.923028
2829,2160.765380859375,1609287726.923031
2830,1991.11572265625,1609287726.923034
2831,2132.3115234375,1609287726.923037
2832,2138.391357421875,1609287726.92304
2833,1837.8720703125,1609287726.923044
2834,1662.813232421875,1609287726.923047
2835,1891.695068359375,1609287726.92305
2836,2030.633544921875,1609287726.923053
2837,1804.2327880859375,1609287726.923056
2838,1594.9757080078125,1609287726.923059
2839,1765.51953125,1609287726.923062
2840,1980.453857421875,1609287726.923076
2841,1822.98583984375,1609287726.982283
2842,1581.2740478515625,1609287726.982299
2843,1722.939453125,1609287726.982306
2844,1963.5560302734375,1609287726.982312
2845,1837.134521484375,1609287726.982318
2846,1586.660888671875,1609287726.982324
2847,1655.3701171875,1609287726.98233
2848,1939.192626953125,1609287726.982337
2849,1890.9351806640625,1609287726.982343
2850,1599.356689453125,1609287726.982349
2851,1593.3216552734375,1609287726.982355
2852,1861.2073974609375,1609287726.982362
2853,1851.97607421875,1609287726.982368
2854,1580.156494140625,1609287726.982374
2855,1524.4112548828125,1609287726.98238
2856,1787.3348388671875,1609287727.042434
2857,1879.200439453125,1609287727.042454
2858,1618.400390625,1609287727.042461
2859,1472.95751953125,1609287727.042468
2860,1699.44775390625,1609287727.042475
2861,1854.4794921875,1609287727.042482
2862,1625.731689453125,1609287727.042489
2863,1440.8157958984375,1609287727.042521
2864,1607.0233154296875,1609287727.042527
2865,1825.5562744140625,1609287727.042534
2866,1672.5809326171875,1609287727.042541
2867,1446.671875,1609287727.042548
2868,1552.283935546875,1609287727.042555
2869,1785.501953125,1609287727.042562
2870,1695.24560546875,1609287727.042569
2871,1451.0975341796875,1609287727.102728
2872,1505.591064453125,1609287727.10275
2873,1786.8431396484375,1609287727.102758
2874,1758.724609375,1609287727.102766
2875,1491.8447265625,1609287727.102774
2876,1509.0333251953125,1609287727.102782
2877,1803.0704345703125,1609287727.10279
2878,1834.2510986328125,1609287727.102798
2879,1550.182861328125,1609287727.102806
2880,1450.6951904296875,1609287727.102814
2881,1716.882080078125,1609287727.102822
2882,1860.2015380859375,1609287727.10283
2883,1623.9212646484375,1609287727.102838
2884,1450.8740234375,1609287727.102847
2885,1638.136962890625,1609287727.102855
2886,1854.635986328125,1609287727.162378
2887,1655.4595947265625,1609287727.162399
2888,1456.7972412109375,1609287727.162406
2889,1611.1583251953125,1609287727.162414
2890,1827.1656494140625,1609287727.162421
2891,1697.9725341796875,1609287727.162429
2892,1493.4541015625,1609287727.162436
2893,1615.449951171875,1609287727.162444
2894,1888.2529296875,1609287727.162451
2895,1810.848876953125,1609287727.162459
2896,1546.71826171875,1609287727.162467
2897,1594.6405029296875,1609287727.162475
2898,1879.6251220703125,1609287727.162482
2899,1877.4793701171875,1609287727.16249
2900,1594.4840087890625,1609287727.162498
2901,1570.6346435546875,1609287727.222793
2902,1825.0198974609375,1609287727.222801
2903,1896.2325439453125,1609287727.222803
2904,1634.89599609375,1609287727.222806
2905,1542.873779296875,1609287727.222809
2906,1782.01513671875,1609287727.222811
2907,1898.0206298828125,1609287727.222814
2908,1683.712158203125,1609287727.222817
2909,1533.173095703125,1609287727.222819
2910,1735.478759765625,1609287727.222832
2911,1934.275146484375,1609287727.222835
2912,1751.728515625,1609287727.222837
2913,1549.5123291015625,1609287727.22284
2914,1697.391357421875,1609287727.222843
2915,1908.3248291015625,1609287727.222845
2916,1782.059814453125,1609287727.282073
2917,1561.51513671875,1609287727.282116
2918,1659.9075927734375,1609287727.282124
2919,1899.1383056640625,1609287727.282131
2920,1851.5513916015625,1609287727.282142
2921,1609.4595947265625,1609287727.282148
2922,1625.59765625,1609287727.282154
2923,1903.74267578125,1609287727.28216
2924,1912.75048828125,1609287727.282166
2925,1642.2496337890625,1609287727.282172
2926,1633.0184326171875,1609287727.282179
2927,1879.5804443359375,1609287727.282185
2928,1973.9495849609375,1609287727.282192
2929,1733.9588623046875,1609287727.282198
2930,1621.08251953125,1609287727.282205
2931,1845.8740234375,1609287727.341631
2932,1993.753173828125,1609287727.341646
2933,1798.2200927734375,1609287727.341673
2934,1626.89404296875,1609287727.341679
2935,1800.90234375,1609287727.341685
2936,1986.8240966796875,1609287727.341691
2937,1833.6029052734375,1609287727.341697
2938,1641.0650634765625,1609287727.341703
2939,1762.9490966796875,1609287727.341709
2940,1960.0020751953125,1609287727.341715
2941,1851.4395751953125,1609287727.341721
2942,1636.0582275390625,1609287727.341726
2943,1712.7470703125,1609287727.341733
2944,1961.1419677734375,1609287727.341739
2945,1933.0234375,1609287727.341745
2946,1689.903564453125,1609287727.401865
2947,1693.748046875,1609287727.401882
2948,1955.017578125,1609287727.401889
2949,2000.7716064453125,1609287727.401896
2950,1740.5526123046875,1609287727.401905
2951,1688.5625,1609287727.401912
2952,1908.54833984375,1609287727.401921
2953,2006.404296875,1609287727.401929
2954,1776.0919189453125,1609287727.401936
2955,1642.6519775390625,1609287727.401944
2956,1829.17724609375,1609287727.401974
2957,1957.878662109375,1609287727.401981
2958,1779.2882080078125,1609287727.401989
2959,1631.2078857421875,1609287727.401997
2960,1776.6507568359375,1609287727.402004
2961,1973.055419921875,1609287727.462281
2962,1841.6942138671875,1609287727.462299
