Time,ECG
2021-09-13 11:29:59.774209,0
2021-09-13 11:29:59.774234,9
2021-09-13 11:29:59.774244,12
2021-09-13 11:29:59.774253,9
2021-09-13 11:29:59.774261,9
2021-09-13 11:29:59.774271,19
2021-09-13 11:29:59.774279,29
2021-09-13 11:29:59.774288,41
2021-09-13 11:29:59.774296,44
2021-09-13 11:29:59.774305,48
2021-09-13 11:29:59.774314,63
2021-09-13 11:29:59.774323,83
2021-09-13 11:29:59.774331,102
2021-09-13 11:29:59.774340,120
2021-09-13 11:29:59.774348,122
2021-09-13 11:29:59.774357,120
2021-09-13 11:29:59.774366,117
2021-09-13 11:29:59.774375,117
2021-09-13 11:29:59.774383,95
2021-09-13 11:29:59.774392,53
2021-09-13 11:29:59.774400,12
2021-09-13 11:29:59.774409,-29
2021-09-13 11:29:59.774417,-53
2021-09-13 11:29:59.774425,-61
2021-09-13 11:29:59.774432,-71
2021-09-13 11:29:59.774440,-71
2021-09-13 11:29:59.774448,-71
2021-09-13 11:29:59.774455,-75
2021-09-13 11:29:59.774462,-68
2021-09-13 11:29:59.774469,-68
2021-09-13 11:29:59.999088,-63
2021-09-13 11:29:59.999110,-61
2021-09-13 11:29:59.999117,-63
2021-09-13 11:29:59.999124,-63
2021-09-13 11:29:59.999131,-61
2021-09-13 11:29:59.999138,-51
2021-09-13 11:29:59.999146,-39
2021-09-13 11:29:59.999151,-39
2021-09-13 11:29:59.999159,-36
2021-09-13 11:29:59.999166,-29
2021-09-13 11:29:59.999172,-19
2021-09-13 11:29:59.999180,-9
2021-09-13 11:29:59.999186,-4
2021-09-13 11:29:59.999194,-2
2021-09-13 11:29:59.999200,-7
2021-09-13 11:29:59.999206,-9
2021-09-13 11:29:59.999214,-2
2021-09-13 11:29:59.999221,-2
2021-09-13 11:29:59.999229,-2
2021-09-13 11:29:59.999234,0
2021-09-13 11:29:59.999240,-14
2021-09-13 11:29:59.999248,-22
2021-09-13 11:29:59.999253,-7
2021-09-13 11:29:59.999260,0
2021-09-13 11:29:59.999267,0
2021-09-13 11:29:59.999272,-2
2021-09-13 11:29:59.999280,0
2021-09-13 11:29:59.999285,2
2021-09-13 11:29:59.999291,2
2021-09-13 11:29:59.999301,9
2021-09-13 11:30:00.224365,14
2021-09-13 11:30:00.224395,12
2021-09-13 11:30:00.224407,12
2021-09-13 11:30:00.224417,9
2021-09-13 11:30:00.224427,12
2021-09-13 11:30:00.224437,12
2021-09-13 11:30:00.224447,4
2021-09-13 11:30:00.224457,4
2021-09-13 11:30:00.224467,12
2021-09-13 11:30:00.224476,34
2021-09-13 11:30:00.224486,46
2021-09-13 11:30:00.224496,44
2021-09-13 11:30:00.224506,39
2021-09-13 11:30:00.224522,14
2021-09-13 11:30:00.224532,-7
2021-09-13 11:30:00.224542,4
2021-09-13 11:30:00.224551,17
2021-09-13 11:30:00.224561,19
2021-09-13 11:30:00.224571,24
2021-09-13 11:30:00.224581,53
2021-09-13 11:30:00.224591,200
2021-09-13 11:30:00.224600,602
2021-09-13 11:30:00.224610,1170
2021-09-13 11:30:00.224620,1080
2021-09-13 11:30:00.224629,58
2021-09-13 11:30:00.224639,-458
2021-09-13 11:30:00.224649,-71
2021-09-13 11:30:00.224658,24
2021-09-13 11:30:00.224668,-173
2021-09-13 11:30:00.224681,-100
2021-09-13 11:30:00.449358,-17
2021-09-13 11:30:00.449380,-73
2021-09-13 11:30:00.449388,-66
2021-09-13 11:30:00.449394,-19
2021-09-13 11:30:00.449400,-24
2021-09-13 11:30:00.449407,-24
2021-09-13 11:30:00.449413,-12
2021-09-13 11:30:00.449419,-24
2021-09-13 11:30:00.449425,-19
2021-09-13 11:30:00.449432,0
2021-09-13 11:30:00.449438,12
2021-09-13 11:30:00.449444,19
2021-09-13 11:30:00.449450,22
2021-09-13 11:30:00.449468,29
2021-09-13 11:30:00.449475,46
2021-09-13 11:30:00.449481,63
2021-09-13 11:30:00.449487,83
2021-09-13 11:30:00.449497,102
2021-09-13 11:30:00.449504,117
2021-09-13 11:30:00.449510,132
2021-09-13 11:30:00.449516,134
2021-09-13 11:30:00.449523,132
2021-09-13 11:30:00.449529,129
2021-09-13 11:30:00.449535,120
2021-09-13 11:30:00.449541,88
2021-09-13 11:30:00.449548,29
2021-09-13 11:30:00.449554,-31
2021-09-13 11:30:00.449560,-66
2021-09-13 11:30:00.449567,-83
2021-09-13 11:30:00.449573,-95
2021-09-13 11:30:00.674902,-105
2021-09-13 11:30:00.674924,-102
2021-09-13 11:30:00.674931,-95
2021-09-13 11:30:00.674938,-97
2021-09-13 11:30:00.674944,-95
2021-09-13 11:30:00.674950,-97
2021-09-13 11:30:00.674956,-105
2021-09-13 11:30:00.674968,-97
2021-09-13 11:30:00.674974,-88
2021-09-13 11:30:00.674981,-83
2021-09-13 11:30:00.674987,-75
2021-09-13 11:30:00.674993,-73
2021-09-13 11:30:00.674999,-68
2021-09-13 11:30:00.675006,-63
2021-09-13 11:30:00.675012,-48
2021-09-13 11:30:00.675019,-36
2021-09-13 11:30:00.675025,-36
2021-09-13 11:30:00.675031,-29
2021-09-13 11:30:00.675038,-24
2021-09-13 11:30:00.675044,-26
2021-09-13 11:30:00.675050,-22
2021-09-13 11:30:00.675057,-19
2021-09-13 11:30:00.675063,-17
2021-09-13 11:30:00.675069,-14
2021-09-13 11:30:00.675075,-17
2021-09-13 11:30:00.675082,-12
2021-09-13 11:30:00.675088,-17
2021-09-13 11:30:00.675095,-22
2021-09-13 11:30:00.675101,-14
2021-09-13 11:30:00.675108,-17
2021-09-13 11:30:00.899834,-17
2021-09-13 11:30:00.899856,-9
2021-09-13 11:30:00.899863,-12
2021-09-13 11:30:00.899870,-19
2021-09-13 11:30:00.899876,-22
2021-09-13 11:30:00.899882,-14
2021-09-13 11:30:00.899888,2
2021-09-13 11:30:00.899895,17
2021-09-13 11:30:00.899901,22
2021-09-13 11:30:00.899907,12
2021-09-13 11:30:00.899913,-4
2021-09-13 11:30:00.899919,-19
2021-09-13 11:30:00.899925,-26
2021-09-13 11:30:00.899932,-19
2021-09-13 11:30:00.899938,-9
2021-09-13 11:30:00.899944,-7
2021-09-13 11:30:00.899950,9
2021-09-13 11:30:00.899956,68
2021-09-13 11:30:00.899963,284
2021-09-13 11:30:00.899969,752
2021-09-13 11:30:00.899975,1090
2021-09-13 11:30:00.899981,511
2021-09-13 11:30:00.899987,-418
2021-09-13 11:30:00.899993,-340
2021-09-13 11:30:00.900003,85
2021-09-13 11:30:00.900010,-56
2021-09-13 11:30:00.900016,-149
2021-09-13 11:30:00.900022,-14
2021-09-13 11:30:00.900028,-22
2021-09-13 11:30:00.900034,-71
2021-09-13 11:30:01.124862,-26
2021-09-13 11:30:01.124894,-9
2021-09-13 11:30:01.124905,-31
2021-09-13 11:30:01.124915,-29
2021-09-13 11:30:01.124925,-7
2021-09-13 11:30:01.124935,-4
2021-09-13 11:30:01.124945,0
2021-09-13 11:30:01.124955,19
2021-09-13 11:30:01.124965,26
2021-09-13 11:30:01.124975,34
2021-09-13 11:30:01.124985,44
2021-09-13 11:30:01.124995,46
2021-09-13 11:30:01.125005,68
2021-09-13 11:30:01.125015,93
2021-09-13 11:30:01.125024,110
2021-09-13 11:30:01.125034,129
2021-09-13 11:30:01.125044,137
2021-09-13 11:30:01.125054,144
2021-09-13 11:30:01.125064,149
2021-09-13 11:30:01.125074,146
2021-09-13 11:30:01.125083,132
2021-09-13 11:30:01.125093,95
2021-09-13 11:30:01.125106,44
2021-09-13 11:30:01.125116,-9
2021-09-13 11:30:01.125126,-53
2021-09-13 11:30:01.125136,-75
2021-09-13 11:30:01.125145,-97
2021-09-13 11:30:01.125155,-112
2021-09-13 11:30:01.125165,-112
2021-09-13 11:30:01.125175,-115
2021-09-13 11:30:01.349371,-115
2021-09-13 11:30:01.349393,-117
2021-09-13 11:30:01.349401,-117
2021-09-13 11:30:01.349407,-112
2021-09-13 11:30:01.349413,-112
2021-09-13 11:30:01.349419,-105
2021-09-13 11:30:01.349425,-88
2021-09-13 11:30:01.349432,-78
2021-09-13 11:30:01.349438,-68
2021-09-13 11:30:01.349444,-63
2021-09-13 11:30:01.349450,-63
2021-09-13 11:30:01.349456,-53
2021-09-13 11:30:01.349463,-39
2021-09-13 11:30:01.349469,-29
2021-09-13 11:30:01.349475,-31
2021-09-13 11:30:01.349481,-31
2021-09-13 11:30:01.349487,-26
2021-09-13 11:30:01.349493,-24
2021-09-13 11:30:01.349500,-19
2021-09-13 11:30:01.349506,-17
2021-09-13 11:30:01.349512,-19
2021-09-13 11:30:01.349518,-24
2021-09-13 11:30:01.349524,-24
2021-09-13 11:30:01.349531,-17
2021-09-13 11:30:01.349542,-9
2021-09-13 11:30:01.349549,-12
2021-09-13 11:30:01.349555,-9
2021-09-13 11:30:01.349561,-7
2021-09-13 11:30:01.349568,-12
2021-09-13 11:30:01.349574,-9
2021-09-13 11:30:01.663097,-14
2021-09-13 11:30:01.663119,-9
2021-09-13 11:30:01.663127,9
2021-09-13 11:30:01.663134,12
2021-09-13 11:30:01.663140,12
2021-09-13 11:30:01.663146,19
2021-09-13 11:30:01.663152,14
2021-09-13 11:30:01.663159,-7
2021-09-13 11:30:01.663165,-31
2021-09-13 11:30:01.663171,-36
2021-09-13 11:30:01.663177,-29
2021-09-13 11:30:01.663183,-19
2021-09-13 11:30:01.663189,-4
2021-09-13 11:30:01.663196,22
2021-09-13 11:30:01.663202,144
2021-09-13 11:30:01.663208,504
2021-09-13 11:30:01.663214,1043
2021-09-13 11:30:01.663221,1048
2021-09-13 11:30:01.663227,115
2021-09-13 11:30:01.663233,-467
2021-09-13 11:30:01.663239,-110
2021-09-13 11:30:01.663245,44
2021-09-13 11:30:01.663252,-154
2021-09-13 11:30:01.663258,-97
2021-09-13 11:30:01.663264,2
2021-09-13 11:30:01.663270,-51
2021-09-13 11:30:01.663276,-61
2021-09-13 11:30:01.663282,-14
2021-09-13 11:30:01.663289,-9
2021-09-13 11:30:01.663295,-7
2021-09-13 11:30:01.889727,17
2021-09-13 11:30:01.889749,19
2021-09-13 11:30:01.889757,12
2021-09-13 11:30:01.889763,26
2021-09-13 11:30:01.889770,34
2021-09-13 11:30:01.889776,36
2021-09-13 11:30:01.889782,48
2021-09-13 11:30:01.889789,63
2021-09-13 11:30:01.889795,73
2021-09-13 11:30:01.889802,80
2021-09-13 11:30:01.889808,102
2021-09-13 11:30:01.889814,132
2021-09-13 11:30:01.889820,146
2021-09-13 11:30:01.889827,161
2021-09-13 11:30:01.889833,164
2021-09-13 11:30:01.889839,151
2021-09-13 11:30:01.889845,144
2021-09-13 11:30:01.889852,124
2021-09-13 11:30:01.889858,83
2021-09-13 11:30:01.889864,26
2021-09-13 11:30:01.889870,-29
2021-09-13 11:30:01.889877,-63
2021-09-13 11:30:01.889883,-83
2021-09-13 11:30:01.889889,-100
2021-09-13 11:30:01.889895,-102
2021-09-13 11:30:01.889902,-105
2021-09-13 11:30:01.889908,-107
2021-09-13 11:30:01.889914,-110
2021-09-13 11:30:01.889921,-107
2021-09-13 11:30:01.889927,-102
2021-09-13 11:30:02.069265,-100
2021-09-13 11:30:02.069297,-100
2021-09-13 11:30:02.069309,-97
2021-09-13 11:30:02.069318,-95
2021-09-13 11:30:02.069328,-85
2021-09-13 11:30:02.069338,-80
2021-09-13 11:30:02.069347,-75
2021-09-13 11:30:02.069357,-73
2021-09-13 11:30:02.069367,-80
2021-09-13 11:30:02.069376,-71
2021-09-13 11:30:02.069394,-53
2021-09-13 11:30:02.069404,-48
2021-09-13 11:30:02.069414,-46
2021-09-13 11:30:02.069423,-53
2021-09-13 11:30:02.069433,-66
2021-09-13 11:30:02.069443,-58
2021-09-13 11:30:02.069452,-48
2021-09-13 11:30:02.069462,-46
2021-09-13 11:30:02.069472,-48
2021-09-13 11:30:02.069482,-56
2021-09-13 11:30:02.069492,-48
2021-09-13 11:30:02.069501,-26
2021-09-13 11:30:02.069511,-4
2021-09-13 11:30:02.069521,-2
2021-09-13 11:30:02.069530,-7
2021-09-13 11:30:02.069540,-14
2021-09-13 11:30:02.069549,-34
2021-09-13 11:30:02.069559,-39
2021-09-13 11:30:02.069569,-26
2021-09-13 11:30:02.069579,-24
2021-09-13 11:30:02.294902,-17
2021-09-13 11:30:02.294934,-9
2021-09-13 11:30:02.294945,7
2021-09-13 11:30:02.294955,122
2021-09-13 11:30:02.294965,467
2021-09-13 11:30:02.294974,1006
2021-09-13 11:30:02.294984,1045
2021-09-13 11:30:02.294993,146
2021-09-13 11:30:02.295003,-485
2021-09-13 11:30:02.295013,-166
2021-09-13 11:30:02.295022,31
2021-09-13 11:30:02.295032,-149
2021-09-13 11:30:02.295041,-124
2021-09-13 11:30:02.295051,-34
2021-09-13 11:30:02.295061,-75
2021-09-13 11:30:02.295070,-75
2021-09-13 11:30:02.295080,-24
2021-09-13 11:30:02.295089,-24
2021-09-13 11:30:02.295099,-26
2021-09-13 11:30:02.295108,-9
2021-09-13 11:30:02.295118,-4
2021-09-13 11:30:02.295127,4
2021-09-13 11:30:02.295137,19
2021-09-13 11:30:02.295146,29
2021-09-13 11:30:02.295156,36
2021-09-13 11:30:02.295173,46
2021-09-13 11:30:02.295183,61
2021-09-13 11:30:02.295192,73
2021-09-13 11:30:02.295202,90
2021-09-13 11:30:02.295212,112
2021-09-13 11:30:02.519030,127
2021-09-13 11:30:02.519050,139
2021-09-13 11:30:02.519057,154
2021-09-13 11:30:02.519064,154
2021-09-13 11:30:02.519070,156
2021-09-13 11:30:02.519077,146
2021-09-13 11:30:02.519083,120
2021-09-13 11:30:02.519089,73
2021-09-13 11:30:02.519095,24
2021-09-13 11:30:02.519102,-14
2021-09-13 11:30:02.519108,-51
2021-09-13 11:30:02.519114,-83
2021-09-13 11:30:02.519120,-97
2021-09-13 11:30:02.519127,-97
2021-09-13 11:30:02.519133,-95
2021-09-13 11:30:02.519139,-93
2021-09-13 11:30:02.519145,-93
2021-09-13 11:30:02.519152,-88
2021-09-13 11:30:02.519158,-90
2021-09-13 11:30:02.519164,-97
2021-09-13 11:30:02.519170,-102
2021-09-13 11:30:02.519176,-105
2021-09-13 11:30:02.519182,-95
2021-09-13 11:30:02.519189,-85
2021-09-13 11:30:02.519195,-85
2021-09-13 11:30:02.519201,-75
2021-09-13 11:30:02.519207,-66
2021-09-13 11:30:02.519213,-61
2021-09-13 11:30:02.519219,-53
2021-09-13 11:30:02.519226,-46
2021-09-13 11:30:02.744474,-41
2021-09-13 11:30:02.744498,-41
2021-09-13 11:30:02.744506,-36
2021-09-13 11:30:02.744513,-34
2021-09-13 11:30:02.744519,-31
2021-09-13 11:30:02.744526,-31
2021-09-13 11:30:02.744532,-41
2021-09-13 11:30:02.744538,-39
2021-09-13 11:30:02.744545,-24
2021-09-13 11:30:02.744551,-29
2021-09-13 11:30:02.744557,-31
2021-09-13 11:30:02.744563,-34
2021-09-13 11:30:02.744570,-44
2021-09-13 11:30:02.744576,-48
2021-09-13 11:30:02.744583,-44
2021-09-13 11:30:02.744589,-24
2021-09-13 11:30:02.744599,-4
2021-09-13 11:30:02.744606,-4
2021-09-13 11:30:02.744612,2
2021-09-13 11:30:02.744618,7
2021-09-13 11:30:02.744624,-12
2021-09-13 11:30:02.744631,-26
2021-09-13 11:30:02.744637,-24
2021-09-13 11:30:02.744643,-14
2021-09-13 11:30:02.744649,-7
2021-09-13 11:30:02.744655,-4
2021-09-13 11:30:02.744662,14
2021-09-13 11:30:02.744668,85
2021-09-13 11:30:02.744674,338
2021-09-13 11:30:02.744680,849
2021-09-13 11:30:02.969772,1163
2021-09-13 11:30:02.969804,563
2021-09-13 11:30:02.969815,-318
2021-09-13 11:30:02.969825,-281
2021-09-13 11:30:02.969835,46
2021-09-13 11:30:02.969844,-95
2021-09-13 11:30:02.969854,-166
2021-09-13 11:30:02.969863,-34
2021-09-13 11:30:02.969873,-36
2021-09-13 11:30:02.969882,-71
2021-09-13 11:30:02.969892,-31
2021-09-13 11:30:02.969901,-19
2021-09-13 11:30:02.969911,-26
2021-09-13 11:30:02.969920,-7
2021-09-13 11:30:02.969930,4
2021-09-13 11:30:02.969940,-4
2021-09-13 11:30:02.969949,-2
2021-09-13 11:30:02.969959,17
2021-09-13 11:30:02.969968,24
2021-09-13 11:30:02.969978,36
2021-09-13 11:30:02.969988,51
2021-09-13 11:30:02.969997,56
2021-09-13 11:30:02.970007,75
2021-09-13 11:30:02.970017,95
2021-09-13 11:30:02.970027,107
2021-09-13 11:30:02.970036,120
2021-09-13 11:30:02.970046,122
2021-09-13 11:30:02.970056,132
2021-09-13 11:30:02.970065,142
2021-09-13 11:30:02.970075,132
2021-09-13 11:30:03.194425,124
2021-09-13 11:30:03.194446,105
2021-09-13 11:30:03.194452,63
2021-09-13 11:30:03.194458,14
2021-09-13 11:30:03.194463,-31
2021-09-13 11:30:03.194468,-53
2021-09-13 11:30:03.194473,-61
2021-09-13 11:30:03.194478,-66
2021-09-13 11:30:03.194483,-68
2021-09-13 11:30:03.194488,-71
2021-09-13 11:30:03.194493,-73
2021-09-13 11:30:03.194498,-71
2021-09-13 11:30:03.194504,-66
2021-09-13 11:30:03.194515,-58
2021-09-13 11:30:03.194520,-61
2021-09-13 11:30:03.194525,-61
2021-09-13 11:30:03.194530,-56
2021-09-13 11:30:03.194535,-63
2021-09-13 11:30:03.194540,-61
2021-09-13 11:30:03.194545,-58
2021-09-13 11:30:03.194550,-58
2021-09-13 11:30:03.194555,-48
2021-09-13 11:30:03.194560,-41
2021-09-13 11:30:03.194565,-29
2021-09-13 11:30:03.194571,-12
2021-09-13 11:30:03.194576,-12
2021-09-13 11:30:03.194581,-14
2021-09-13 11:30:03.194586,-14
2021-09-13 11:30:03.194591,-4
2021-09-13 11:30:03.194596,0
2021-09-13 11:30:03.464468,-4
2021-09-13 11:30:03.464493,-4
2021-09-13 11:30:03.464501,-9
2021-09-13 11:30:03.464507,-22
2021-09-13 11:30:03.464513,-24
2021-09-13 11:30:03.464520,-17
2021-09-13 11:30:03.464526,-9
2021-09-13 11:30:03.464532,-12
2021-09-13 11:30:03.464538,-24
2021-09-13 11:30:03.464545,-26
2021-09-13 11:30:03.464551,-22
2021-09-13 11:30:03.464557,2
2021-09-13 11:30:03.464564,22
2021-09-13 11:30:03.464570,22
2021-09-13 11:30:03.464576,22
2021-09-13 11:30:03.464583,9
2021-09-13 11:30:03.464589,-12
2021-09-13 11:30:03.464595,-12
2021-09-13 11:30:03.464602,-4
2021-09-13 11:30:03.464608,-2
2021-09-13 11:30:03.464614,-2
2021-09-13 11:30:03.464620,2
2021-09-13 11:30:03.464626,41
2021-09-13 11:30:03.464633,198
2021-09-13 11:30:03.464639,607
2021-09-13 11:30:03.464645,1136
2021-09-13 11:30:03.464652,992
2021-09-13 11:30:03.464658,12
2021-09-13 11:30:03.464664,-443
2021-09-13 11:30:03.464670,-58
2021-09-13 11:30:03.732392,34
2021-09-13 11:30:03.732414,-164
2021-09-13 11:30:03.732420,-105
2021-09-13 11:30:03.732426,-22
2021-09-13 11:30:03.732431,-66
2021-09-13 11:30:03.732436,-48
2021-09-13 11:30:03.732441,-9
2021-09-13 11:30:03.732446,-14
2021-09-13 11:30:03.732451,-12
2021-09-13 11:30:03.732456,-4
2021-09-13 11:30:03.732460,4
2021-09-13 11:30:03.732465,19
2021-09-13 11:30:03.732470,29
2021-09-13 11:30:03.732475,46
2021-09-13 11:30:03.732480,44
2021-09-13 11:30:03.732485,44
2021-09-13 11:30:03.732490,66
2021-09-13 11:30:03.732498,83
2021-09-13 11:30:03.732503,100
2021-09-13 11:30:03.732508,124
2021-09-13 11:30:03.732513,146
2021-09-13 11:30:03.732517,156
2021-09-13 11:30:03.732522,159
2021-09-13 11:30:03.732527,171
2021-09-13 11:30:03.732532,173
2021-09-13 11:30:03.732537,164
2021-09-13 11:30:03.732542,142
2021-09-13 11:30:03.732547,97
2021-09-13 11:30:03.732552,48
2021-09-13 11:30:03.732557,12
2021-09-13 11:30:03.959296,-22
2021-09-13 11:30:03.959328,-39
2021-09-13 11:30:03.959339,-48
2021-09-13 11:30:03.959349,-58
2021-09-13 11:30:03.959359,-53
2021-09-13 11:30:03.959369,-46
2021-09-13 11:30:03.959378,-41
2021-09-13 11:30:03.959388,-44
2021-09-13 11:30:03.959397,-56
2021-09-13 11:30:03.959407,-53
2021-09-13 11:30:03.959417,-48
2021-09-13 11:30:03.959426,-46
2021-09-13 11:30:03.959436,-36
2021-09-13 11:30:03.959446,-39
2021-09-13 11:30:03.959455,-41
2021-09-13 11:30:03.959465,-39
2021-09-13 11:30:03.959474,-22
2021-09-13 11:30:03.959484,-2
2021-09-13 11:30:03.959494,0
2021-09-13 11:30:03.959503,0
2021-09-13 11:30:03.959513,7
2021-09-13 11:30:03.959523,9
2021-09-13 11:30:03.959532,14
2021-09-13 11:30:03.959542,9
2021-09-13 11:30:03.959552,4
2021-09-13 11:30:03.959561,2
2021-09-13 11:30:03.959571,2
2021-09-13 11:30:03.959581,4
2021-09-13 11:30:03.959590,4
2021-09-13 11:30:03.959600,7
2021-09-13 11:30:04.139787,14
2021-09-13 11:30:04.139818,7
2021-09-13 11:30:04.139829,4
2021-09-13 11:30:04.139841,12
2021-09-13 11:30:04.139851,4
2021-09-13 11:30:04.139860,-2
2021-09-13 11:30:04.139870,-7
2021-09-13 11:30:04.139880,-2
2021-09-13 11:30:04.139890,9
2021-09-13 11:30:04.139899,14
2021-09-13 11:30:04.139909,24
2021-09-13 11:30:04.139918,24
2021-09-13 11:30:04.139928,2
2021-09-13 11:30:04.139937,-19
2021-09-13 11:30:04.139947,-29
2021-09-13 11:30:04.139956,-14
2021-09-13 11:30:04.139966,0
2021-09-13 11:30:04.139976,-2
2021-09-13 11:30:04.139985,2
2021-09-13 11:30:04.139995,53
2021-09-13 11:30:04.140004,274
2021-09-13 11:30:04.140014,769
2021-09-13 11:30:04.140023,1214
2021-09-13 11:30:04.140033,761
2021-09-13 11:30:04.140042,-271
2021-09-13 11:30:04.140052,-401
2021-09-13 11:30:04.140061,26
2021-09-13 11:30:04.140071,-53
2021-09-13 11:30:04.140080,-188
2021-09-13 11:30:04.140094,-51
2021-09-13 11:30:04.364802,-34
2021-09-13 11:30:04.364834,-90
2021-09-13 11:30:04.364845,-48
2021-09-13 11:30:04.364855,-17
2021-09-13 11:30:04.364864,-31
2021-09-13 11:30:04.364874,-19
2021-09-13 11:30:04.364884,-2
2021-09-13 11:30:04.364894,-7
2021-09-13 11:30:04.364904,0
2021-09-13 11:30:04.364913,22
2021-09-13 11:30:04.364923,24
2021-09-13 11:30:04.364932,31
2021-09-13 11:30:04.364942,46
2021-09-13 11:30:04.364952,53
2021-09-13 11:30:04.364961,71
2021-09-13 11:30:04.364971,88
2021-09-13 11:30:04.364980,102
2021-09-13 11:30:04.364990,129
2021-09-13 11:30:04.364999,142
2021-09-13 11:30:04.365009,146
2021-09-13 11:30:04.365019,146
2021-09-13 11:30:04.365028,142
2021-09-13 11:30:04.365038,137
2021-09-13 11:30:04.365048,110
2021-09-13 11:30:04.365057,61
2021-09-13 11:30:04.365067,12
2021-09-13 11:30:04.365076,-29
2021-09-13 11:30:04.365086,-61
2021-09-13 11:30:04.365096,-85
2021-09-13 11:30:04.365106,-93
2021-09-13 11:30:04.589279,-90
2021-09-13 11:30:04.589310,-90
2021-09-13 11:30:04.589322,-88
2021-09-13 11:30:04.589333,-83
2021-09-13 11:30:04.589342,-83
2021-09-13 11:30:04.589352,-83
2021-09-13 11:30:04.589362,-88
2021-09-13 11:30:04.589372,-85
2021-09-13 11:30:04.589382,-73
2021-09-13 11:30:04.589391,-75
2021-09-13 11:30:04.589401,-71
2021-09-13 11:30:04.589411,-61
2021-09-13 11:30:04.589420,-56
2021-09-13 11:30:04.589430,-53
2021-09-13 11:30:04.589440,-53
2021-09-13 11:30:04.589450,-48
2021-09-13 11:30:04.589459,-39
2021-09-13 11:30:04.589469,-36
2021-09-13 11:30:04.589479,-34
2021-09-13 11:30:04.589488,-29
2021-09-13 11:30:04.589498,-29
2021-09-13 11:30:04.589507,-26
2021-09-13 11:30:04.589517,-26
2021-09-13 11:30:04.589527,-26
2021-09-13 11:30:04.589536,-29
2021-09-13 11:30:04.589546,-26
2021-09-13 11:30:04.589556,-24
2021-09-13 11:30:04.589565,-24
2021-09-13 11:30:04.589575,-24
2021-09-13 11:30:04.589585,-31
2021-09-13 11:30:04.814376,-41
2021-09-13 11:30:04.814397,-24
2021-09-13 11:30:04.814404,-2
2021-09-13 11:30:04.814411,-2
2021-09-13 11:30:04.814418,0
2021-09-13 11:30:04.814424,-7
2021-09-13 11:30:04.814430,-24
2021-09-13 11:30:04.814436,-36
2021-09-13 11:30:04.814443,-39
2021-09-13 11:30:04.814449,-31
2021-09-13 11:30:04.814455,-31
2021-09-13 11:30:04.814461,-31
2021-09-13 11:30:04.814467,-19
2021-09-13 11:30:04.814473,31
2021-09-13 11:30:04.814480,225
2021-09-13 11:30:04.814486,678
2021-09-13 11:30:04.814492,1156
2021-09-13 11:30:04.814499,813
2021-09-13 11:30:04.814505,-220
2021-09-13 11:30:04.814511,-440
2021-09-13 11:30:04.814520,-2
2021-09-13 11:30:04.814527,-36
2021-09-13 11:30:04.814533,-191
2021-09-13 11:30:04.814539,-73
2021-09-13 11:30:04.814545,-34
2021-09-13 11:30:04.814552,-85
2021-09-13 11:30:04.814558,-53
2021-09-13 11:30:04.814564,-17
2021-09-13 11:30:04.814570,-29
2021-09-13 11:30:04.814577,-22
2021-09-13 11:30:05.084765,0
2021-09-13 11:30:05.084797,-2
2021-09-13 11:30:05.084808,0
2021-09-13 11:30:05.084818,14
2021-09-13 11:30:05.084828,17
2021-09-13 11:30:05.084838,22
2021-09-13 11:30:05.084847,39
2021-09-13 11:30:05.084857,58
2021-09-13 11:30:05.084866,75
2021-09-13 11:30:05.084876,88
2021-09-13 11:30:05.084885,105
2021-09-13 11:30:05.084895,117
2021-09-13 11:30:05.084904,134
2021-09-13 11:30:05.084914,154
2021-09-13 11:30:05.084924,151
2021-09-13 11:30:05.084933,142
2021-09-13 11:30:05.084943,129
2021-09-13 11:30:05.084953,102
2021-09-13 11:30:05.084962,63
2021-09-13 11:30:05.084972,7
2021-09-13 11:30:05.084981,-46
2021-09-13 11:30:05.084991,-75
2021-09-13 11:30:05.085001,-95
2021-09-13 11:30:05.085010,-100
2021-09-13 11:30:05.085020,-95
2021-09-13 11:30:05.085030,-90
2021-09-13 11:30:05.085039,-90
2021-09-13 11:30:05.085049,-95
2021-09-13 11:30:05.085058,-93
2021-09-13 11:30:05.085068,-85
2021-09-13 11:30:05.308671,-83
2021-09-13 11:30:05.308703,-73
2021-09-13 11:30:05.308714,-71
2021-09-13 11:30:05.308724,-75
2021-09-13 11:30:05.308733,-71
2021-09-13 11:30:05.308743,-61
2021-09-13 11:30:05.308752,-48
2021-09-13 11:30:05.308762,-36
2021-09-13 11:30:05.308771,-29
2021-09-13 11:30:05.308781,-31
2021-09-13 11:30:05.308790,-36
2021-09-13 11:30:05.308800,-26
2021-09-13 11:30:05.308809,-17
2021-09-13 11:30:05.308818,-19
2021-09-13 11:30:05.308828,-17
2021-09-13 11:30:05.308837,-22
2021-09-13 11:30:05.308847,-29
2021-09-13 11:30:05.308856,-22
2021-09-13 11:30:05.308865,-24
2021-09-13 11:30:05.308875,-26
2021-09-13 11:30:05.308884,-34
2021-09-13 11:30:05.308894,-41
2021-09-13 11:30:05.308903,-22
2021-09-13 11:30:05.308912,4
2021-09-13 11:30:05.308922,14
2021-09-13 11:30:05.308931,17
2021-09-13 11:30:05.308940,7
2021-09-13 11:30:05.308950,-12
2021-09-13 11:30:05.308959,-29
2021-09-13 11:30:05.308969,-34
2021-09-13 11:30:05.534306,-22
2021-09-13 11:30:05.534329,-22
2021-09-13 11:30:05.534336,-24
2021-09-13 11:30:05.534343,-17
2021-09-13 11:30:05.534349,63
2021-09-13 11:30:05.534355,347
2021-09-13 11:30:05.534361,874
2021-09-13 11:30:05.534367,1158
2021-09-13 11:30:05.534373,440
2021-09-13 11:30:05.534380,-489
2021-09-13 11:30:05.534386,-330
2021-09-13 11:30:05.534392,46
2021-09-13 11:30:05.534398,-132
2021-09-13 11:30:05.534404,-188
2021-09-13 11:30:05.534410,-51
2021-09-13 11:30:05.534417,-75
2021-09-13 11:30:05.534423,-107
2021-09-13 11:30:05.534429,-53
2021-09-13 11:30:05.534435,-34
2021-09-13 11:30:05.534441,-44
2021-09-13 11:30:05.534448,-31
2021-09-13 11:30:05.534454,-17
2021-09-13 11:30:05.534464,-12
2021-09-13 11:30:05.534470,4
2021-09-13 11:30:05.534476,17
2021-09-13 11:30:05.534483,12
2021-09-13 11:30:05.534489,12
2021-09-13 11:30:05.534496,26
2021-09-13 11:30:05.534502,56
2021-09-13 11:30:05.534508,75
2021-09-13 11:30:05.802610,90
2021-09-13 11:30:05.802633,115
2021-09-13 11:30:05.802641,132
2021-09-13 11:30:05.802648,139
2021-09-13 11:30:05.802654,151
2021-09-13 11:30:05.802661,146
2021-09-13 11:30:05.802667,139
2021-09-13 11:30:05.802673,120
2021-09-13 11:30:05.802680,66
2021-09-13 11:30:05.802686,2
2021-09-13 11:30:05.802693,-41
2021-09-13 11:30:05.802699,-71
2021-09-13 11:30:05.802705,-95
2021-09-13 11:30:05.802712,-112
2021-09-13 11:30:05.802718,-120
2021-09-13 11:30:05.802724,-124
2021-09-13 11:30:05.802731,-120
2021-09-13 11:30:05.802737,-112
2021-09-13 11:30:05.802743,-112
2021-09-13 11:30:05.802750,-107
2021-09-13 11:30:05.802756,-105
2021-09-13 11:30:05.802762,-102
2021-09-13 11:30:05.802768,-93
2021-09-13 11:30:05.802775,-85
2021-09-13 11:30:05.802781,-80
2021-09-13 11:30:05.802787,-71
2021-09-13 11:30:05.802793,-63
2021-09-13 11:30:05.802800,-53
2021-09-13 11:30:05.802806,-46
2021-09-13 11:30:05.802812,-41
2021-09-13 11:30:06.028893,-31
2021-09-13 11:30:06.028914,-31
2021-09-13 11:30:06.028921,-36
2021-09-13 11:30:06.028928,-34
2021-09-13 11:30:06.028934,-31
2021-09-13 11:30:06.028941,-24
2021-09-13 11:30:06.028947,-29
2021-09-13 11:30:06.028953,-41
2021-09-13 11:30:06.028960,-46
2021-09-13 11:30:06.028966,-31
2021-09-13 11:30:06.028972,-12
2021-09-13 11:30:06.028979,-14
2021-09-13 11:30:06.028985,-22
2021-09-13 11:30:06.028991,-31
2021-09-13 11:30:06.028997,-56
2021-09-13 11:30:06.029004,-63
2021-09-13 11:30:06.029010,-51
2021-09-13 11:30:06.029017,-44
2021-09-13 11:30:06.029023,-41
2021-09-13 11:30:06.029029,-44
2021-09-13 11:30:06.029036,-22
2021-09-13 11:30:06.029042,97
2021-09-13 11:30:06.029048,431
2021-09-13 11:30:06.029055,962
2021-09-13 11:30:06.029061,979
2021-09-13 11:30:06.029067,41
2021-09-13 11:30:06.029073,-558
2021-09-13 11:30:06.029080,-166
2021-09-13 11:30:06.029086,29
2021-09-13 11:30:06.029093,-178
2021-09-13 11:30:06.209805,-139
2021-09-13 11:30:06.209836,-44
2021-09-13 11:30:06.209848,-107
2021-09-13 11:30:06.209858,-105
2021-09-13 11:30:06.209868,-46
2021-09-13 11:30:06.209877,-48
2021-09-13 11:30:06.209887,-53
2021-09-13 11:30:06.209897,-36
2021-09-13 11:30:06.209906,-31
2021-09-13 11:30:06.209916,-22
2021-09-13 11:30:06.209926,-4
2021-09-13 11:30:06.209935,4
2021-09-13 11:30:06.209945,2
2021-09-13 11:30:06.209955,9
2021-09-13 11:30:06.209965,39
2021-09-13 11:30:06.209974,56
2021-09-13 11:30:06.209984,71
2021-09-13 11:30:06.209993,97
2021-09-13 11:30:06.210003,112
2021-09-13 11:30:06.210013,127
2021-09-13 11:30:06.210022,139
2021-09-13 11:30:06.210032,144
2021-09-13 11:30:06.210042,142
2021-09-13 11:30:06.210051,122
2021-09-13 11:30:06.210061,93
2021-09-13 11:30:06.210070,46
2021-09-13 11:30:06.210080,-12
2021-09-13 11:30:06.210090,-51
2021-09-13 11:30:06.210099,-80
2021-09-13 11:30:06.210109,-100
2021-09-13 11:30:06.478827,-105
2021-09-13 11:30:06.478859,-110
2021-09-13 11:30:06.478871,-105
2021-09-13 11:30:06.478881,-102
2021-09-13 11:30:06.478891,-105
2021-09-13 11:30:06.478905,-102
2021-09-13 11:30:06.478915,-105
2021-09-13 11:30:06.478925,-102
2021-09-13 11:30:06.478935,-90
2021-09-13 11:30:06.478945,-85
2021-09-13 11:30:06.478954,-73
2021-09-13 11:30:06.478964,-61
2021-09-13 11:30:06.478974,-61
2021-09-13 11:30:06.478983,-61
2021-09-13 11:30:06.478993,-56
2021-09-13 11:30:06.479002,-48
2021-09-13 11:30:06.479012,-44
2021-09-13 11:30:06.479022,-41
2021-09-13 11:30:06.479031,-36
2021-09-13 11:30:06.479041,-34
2021-09-13 11:30:06.479050,-29
2021-09-13 11:30:06.479060,-26
2021-09-13 11:30:06.479069,-26
2021-09-13 11:30:06.479079,-22
2021-09-13 11:30:06.479089,-24
2021-09-13 11:30:06.479098,-22
2021-09-13 11:30:06.479108,-19
2021-09-13 11:30:06.479118,-29
2021-09-13 11:30:06.479127,-31
2021-09-13 11:30:06.479137,-19
2021-09-13 11:30:06.659089,-2
2021-09-13 11:30:06.659109,12
2021-09-13 11:30:06.659117,9
2021-09-13 11:30:06.659123,7
2021-09-13 11:30:06.659130,2
2021-09-13 11:30:06.659136,-22
2021-09-13 11:30:06.659142,-39
2021-09-13 11:30:06.659148,-39
2021-09-13 11:30:06.659155,-36
2021-09-13 11:30:06.659161,-31
2021-09-13 11:30:06.659167,-24
2021-09-13 11:30:06.659173,-7
2021-09-13 11:30:06.659180,88
2021-09-13 11:30:06.659186,421
2021-09-13 11:30:06.659192,992
2021-09-13 11:30:06.659198,1124
2021-09-13 11:30:06.659205,257
2021-09-13 11:30:06.659211,-497
2021-09-13 11:30:06.659217,-237
2021-09-13 11:30:06.659224,14
2021-09-13 11:30:06.659230,-183
2021-09-13 11:30:06.659236,-181
2021-09-13 11:30:06.659242,-56
2021-09-13 11:30:06.659249,-97
2021-09-13 11:30:06.659255,-112
2021-09-13 11:30:06.659261,-53
2021-09-13 11:30:06.659267,-48
2021-09-13 11:30:06.659274,-58
2021-09-13 11:30:06.659280,-39
2021-09-13 11:30:06.659286,-26
2021-09-13 11:30:06.884896,-19
2021-09-13 11:30:06.884919,-9
2021-09-13 11:30:06.884927,7
2021-09-13 11:30:06.884933,14
2021-09-13 11:30:06.884940,22
2021-09-13 11:30:06.884946,34
2021-09-13 11:30:06.884952,46
2021-09-13 11:30:06.884959,63
2021-09-13 11:30:06.884965,80
2021-09-13 11:30:06.884971,95
2021-09-13 11:30:06.884978,112
2021-09-13 11:30:06.884984,115
2021-09-13 11:30:06.884990,122
2021-09-13 11:30:06.884996,127
2021-09-13 11:30:06.885002,120
2021-09-13 11:30:06.885009,107
2021-09-13 11:30:06.885015,71
2021-09-13 11:30:06.885021,14
2021-09-13 11:30:06.885027,-26
2021-09-13 11:30:06.885033,-56
2021-09-13 11:30:06.885040,-73
2021-09-13 11:30:06.885046,-85
2021-09-13 11:30:06.885052,-93
2021-09-13 11:30:06.885058,-83
2021-09-13 11:30:06.885065,-78
2021-09-13 11:30:06.885071,-80
2021-09-13 11:30:06.885077,-75
2021-09-13 11:30:06.885084,-75
2021-09-13 11:30:06.885090,-73
2021-09-13 11:30:06.885096,-71
2021-09-13 11:30:07.153731,-68
2021-09-13 11:30:07.153764,-58
2021-09-13 11:30:07.153775,-56
2021-09-13 11:30:07.153786,-56
2021-09-13 11:30:07.153795,-53
2021-09-13 11:30:07.153805,-46
2021-09-13 11:30:07.153815,-29
2021-09-13 11:30:07.153824,-26
2021-09-13 11:30:07.153847,-26
2021-09-13 11:30:07.153857,-22
2021-09-13 11:30:07.153866,-24
2021-09-13 11:30:07.153876,-19
2021-09-13 11:30:07.153886,-14
2021-09-13 11:30:07.153899,-22
2021-09-13 11:30:07.153910,-26
2021-09-13 11:30:07.153919,-26
2021-09-13 11:30:07.153929,-24
2021-09-13 11:30:07.153939,-22
2021-09-13 11:30:07.153948,-19
2021-09-13 11:30:07.153958,-14
2021-09-13 11:30:07.153967,-24
2021-09-13 11:30:07.153977,-41
2021-09-13 11:30:07.153987,-34
2021-09-13 11:30:07.153996,-7
2021-09-13 11:30:07.154006,14
2021-09-13 11:30:07.154015,19
2021-09-13 11:30:07.154025,17
2021-09-13 11:30:07.154034,9
2021-09-13 11:30:07.154044,-14
2021-09-13 11:30:07.154053,-29
2021-09-13 11:30:07.379822,-22
2021-09-13 11:30:07.379859,-9
2021-09-13 11:30:07.379870,-4
2021-09-13 11:30:07.379880,-9
2021-09-13 11:30:07.379890,4
2021-09-13 11:30:07.379900,97
2021-09-13 11:30:07.379910,377
2021-09-13 11:30:07.379919,923
2021-09-13 11:30:07.379929,1217
2021-09-13 11:30:07.379939,489
2021-09-13 11:30:07.379948,-426
2021-09-13 11:30:07.379958,-298
2021-09-13 11:30:07.379967,44
2021-09-13 11:30:07.379977,-127
2021-09-13 11:30:07.379987,-183
2021-09-13 11:30:07.379996,-53
2021-09-13 11:30:07.380006,-71
2021-09-13 11:30:07.380015,-105
2021-09-13 11:30:07.380025,-46
2021-09-13 11:30:07.380035,-29
2021-09-13 11:30:07.380044,-44
2021-09-13 11:30:07.380054,-34
2021-09-13 11:30:07.380063,-24
2021-09-13 11:30:07.380073,-19
2021-09-13 11:30:07.380082,-4
2021-09-13 11:30:07.380092,9
2021-09-13 11:30:07.380102,14
2021-09-13 11:30:07.380111,22
2021-09-13 11:30:07.380121,41
2021-09-13 11:30:07.380130,56
2021-09-13 11:30:07.604312,71
2021-09-13 11:30:07.604344,93
2021-09-13 11:30:07.604355,102
2021-09-13 11:30:07.604365,117
2021-09-13 11:30:07.604375,132
2021-09-13 11:30:07.604384,137
2021-09-13 11:30:07.604394,139
2021-09-13 11:30:07.604404,137
2021-09-13 11:30:07.604413,117
2021-09-13 11:30:07.604423,73
2021-09-13 11:30:07.604432,24
2021-09-13 11:30:07.604442,-12
2021-09-13 11:30:07.604452,-46
2021-09-13 11:30:07.604461,-71
2021-09-13 11:30:07.604471,-85
2021-09-13 11:30:07.604480,-100
2021-09-13 11:30:07.604490,-97
2021-09-13 11:30:07.604499,-88
2021-09-13 11:30:07.604509,-88
2021-09-13 11:30:07.604518,-90
2021-09-13 11:30:07.604528,-105
2021-09-13 11:30:07.604537,-107
2021-09-13 11:30:07.604547,-93
2021-09-13 11:30:07.604556,-90
2021-09-13 11:30:07.604566,-93
2021-09-13 11:30:07.604575,-93
2021-09-13 11:30:07.604585,-85
2021-09-13 11:30:07.604594,-73
2021-09-13 11:30:07.604604,-63
2021-09-13 11:30:07.604613,-53
2021-09-13 11:30:07.872721,-46
2021-09-13 11:30:07.872738,-44
2021-09-13 11:30:07.872744,-39
2021-09-13 11:30:07.872750,-34
2021-09-13 11:30:07.872755,-29
2021-09-13 11:30:07.872760,-22
2021-09-13 11:30:07.872765,-19
2021-09-13 11:30:07.872770,-22
2021-09-13 11:30:07.872775,-31
2021-09-13 11:30:07.872780,-34
2021-09-13 11:30:07.872785,-26
2021-09-13 11:30:07.872790,-22
2021-09-13 11:30:07.872795,-17
2021-09-13 11:30:07.872800,-17
2021-09-13 11:30:07.872805,-26
2021-09-13 11:30:07.872810,-24
2021-09-13 11:30:07.872815,-22
2021-09-13 11:30:07.872820,-19
2021-09-13 11:30:07.872825,-22
2021-09-13 11:30:07.872830,-29
2021-09-13 11:30:07.872835,-9
2021-09-13 11:30:07.872840,14
2021-09-13 11:30:07.872844,19
2021-09-13 11:30:07.872849,19
2021-09-13 11:30:07.872854,7
2021-09-13 11:30:07.872859,-7
2021-09-13 11:30:07.872864,-26
2021-09-13 11:30:07.872870,-36
2021-09-13 11:30:07.872875,-24
2021-09-13 11:30:07.872879,-12
2021-09-13 11:30:08.099738,-12
2021-09-13 11:30:08.099769,2
2021-09-13 11:30:08.099781,58
2021-09-13 11:30:08.099791,286
2021-09-13 11:30:08.099801,786
2021-09-13 11:30:08.099811,1173
2021-09-13 11:30:08.099820,612
2021-09-13 11:30:08.099830,-384
2021-09-13 11:30:08.099839,-384
2021-09-13 11:30:08.099849,31
2021-09-13 11:30:08.099858,-97
2021-09-13 11:30:08.099868,-198
2021-09-13 11:30:08.099877,-63
2021-09-13 11:30:08.099887,-71
2021-09-13 11:30:08.099896,-112
2021-09-13 11:30:08.099906,-61
2021-09-13 11:30:08.099915,-39
2021-09-13 11:30:08.099925,-58
2021-09-13 11:30:08.099934,-44
2021-09-13 11:30:08.099944,-14
2021-09-13 11:30:08.099953,-19
2021-09-13 11:30:08.099963,-14
2021-09-13 11:30:08.099972,22
2021-09-13 11:30:08.099982,39
2021-09-13 11:30:08.099991,31
2021-09-13 11:30:08.100001,31
2021-09-13 11:30:08.100010,48
2021-09-13 11:30:08.100020,68
2021-09-13 11:30:08.100030,66
2021-09-13 11:30:08.100039,75
2021-09-13 11:30:08.279718,107
2021-09-13 11:30:08.279749,115
2021-09-13 11:30:08.279761,107
2021-09-13 11:30:08.279771,120
2021-09-13 11:30:08.279780,137
2021-09-13 11:30:08.279790,127
2021-09-13 11:30:08.279800,83
2021-09-13 11:30:08.279810,24
2021-09-13 11:30:08.279819,-7
2021-09-13 11:30:08.279829,-31
2021-09-13 11:30:08.279839,-78
2021-09-13 11:30:08.279860,-122
2021-09-13 11:30:08.279870,-120
2021-09-13 11:30:08.279880,-105
2021-09-13 11:30:08.279889,-112
2021-09-13 11:30:08.279899,-97
2021-09-13 11:30:08.279909,-75
2021-09-13 11:30:08.279919,-88
2021-09-13 11:30:08.279929,-117
2021-09-13 11:30:08.279938,-117
2021-09-13 11:30:08.279948,-93
2021-09-13 11:30:08.279958,-85
2021-09-13 11:30:08.279967,-80
2021-09-13 11:30:08.279977,-58
2021-09-13 11:30:08.279987,-44
2021-09-13 11:30:08.279997,-48
2021-09-13 11:30:08.280006,-63
2021-09-13 11:30:08.280016,-61
2021-09-13 11:30:08.280026,-39
2021-09-13 11:30:08.280035,-26
2021-09-13 11:30:08.504452,-29
2021-09-13 11:30:08.504475,-26
2021-09-13 11:30:08.504482,-26
2021-09-13 11:30:08.504489,-26
2021-09-13 11:30:08.504495,-24
2021-09-13 11:30:08.504501,-26
2021-09-13 11:30:08.504507,-31
2021-09-13 11:30:08.504514,-29
2021-09-13 11:30:08.504520,-34
2021-09-13 11:30:08.504526,-36
2021-09-13 11:30:08.504532,-19
2021-09-13 11:30:08.504539,-4
2021-09-13 11:30:08.504545,-12
2021-09-13 11:30:08.504551,-9
2021-09-13 11:30:08.504557,12
2021-09-13 11:30:08.504564,17
2021-09-13 11:30:08.504570,0
2021-09-13 11:30:08.504576,-24
2021-09-13 11:30:08.504582,-29
2021-09-13 11:30:08.504589,-19
2021-09-13 11:30:08.504595,-19
2021-09-13 11:30:08.504601,-14
2021-09-13 11:30:08.504607,12
2021-09-13 11:30:08.504614,97
2021-09-13 11:30:08.504620,357
2021-09-13 11:30:08.504626,842
2021-09-13 11:30:08.504632,1001
2021-09-13 11:30:08.504638,210
2021-09-13 11:30:08.504645,-524
2021-09-13 11:30:08.504651,-240
2021-09-13 11:30:08.774725,34
2021-09-13 11:30:08.774757,-164
2021-09-13 11:30:08.774768,-169
2021-09-13 11:30:08.774778,-58
2021-09-13 11:30:08.774788,-95
2021-09-13 11:30:08.774797,-102
2021-09-13 11:30:08.774807,-58
2021-09-13 11:30:08.774816,-53
2021-09-13 11:30:08.774826,-56
2021-09-13 11:30:08.774835,-44
2021-09-13 11:30:08.774845,-36
2021-09-13 11:30:08.774854,-29
2021-09-13 11:30:08.774864,-14
2021-09-13 11:30:08.774873,9
2021-09-13 11:30:08.774883,24
2021-09-13 11:30:08.774893,22
2021-09-13 11:30:08.774902,24
2021-09-13 11:30:08.774912,51
2021-09-13 11:30:08.774921,80
2021-09-13 11:30:08.774931,83
2021-09-13 11:30:08.774940,90
2021-09-13 11:30:08.774949,122
2021-09-13 11:30:08.774959,142
2021-09-13 11:30:08.774968,132
2021-09-13 11:30:08.774978,129
2021-09-13 11:30:08.774987,137
2021-09-13 11:30:08.774996,107
2021-09-13 11:30:08.775006,53
2021-09-13 11:30:08.775015,22
2021-09-13 11:30:08.775025,-12
2021-09-13 11:30:08.954856,-58
2021-09-13 11:30:08.954888,-66
2021-09-13 11:30:08.954900,-51
2021-09-13 11:30:08.954909,-63
2021-09-13 11:30:08.954919,-78
2021-09-13 11:30:08.954929,-66
2021-09-13 11:30:08.954939,-53
2021-09-13 11:30:08.954949,-66
2021-09-13 11:30:08.954958,-61
2021-09-13 11:30:08.954968,-48
2021-09-13 11:30:08.954978,-63
2021-09-13 11:30:08.954988,-61
2021-09-13 11:30:08.954998,-46
2021-09-13 11:30:08.955007,-51
2021-09-13 11:30:08.955017,-36
2021-09-13 11:30:08.955027,-7
2021-09-13 11:30:08.955037,-17
2021-09-13 11:30:08.955047,-39
2021-09-13 11:30:08.955056,-17
2021-09-13 11:30:08.955066,9
2021-09-13 11:30:08.955076,0
2021-09-13 11:30:08.955086,-9
2021-09-13 11:30:08.955096,4
2021-09-13 11:30:08.955106,12
2021-09-13 11:30:08.955115,7
2021-09-13 11:30:08.955125,7
2021-09-13 11:30:08.955135,4
2021-09-13 11:30:08.955144,0
2021-09-13 11:30:08.955154,-2
2021-09-13 11:30:08.955164,7
2021-09-13 11:30:09.224430,22
2021-09-13 11:30:09.224464,17
2021-09-13 11:30:09.224476,4
2021-09-13 11:30:09.224486,-4
2021-09-13 11:30:09.224495,-7
2021-09-13 11:30:09.224505,2
2021-09-13 11:30:09.224515,4
2021-09-13 11:30:09.224524,2
2021-09-13 11:30:09.224534,7
2021-09-13 11:30:09.224543,4
2021-09-13 11:30:09.224553,-12
2021-09-13 11:30:09.224562,-22
2021-09-13 11:30:09.224572,-19
2021-09-13 11:30:09.224582,-17
2021-09-13 11:30:09.224591,-14
2021-09-13 11:30:09.224601,-9
2021-09-13 11:30:09.224610,4
2021-09-13 11:30:09.224620,78
2021-09-13 11:30:09.224629,296
2021-09-13 11:30:09.224639,732
2021-09-13 11:30:09.224649,1075
2021-09-13 11:30:09.224658,595
2021-09-13 11:30:09.224668,-296
2021-09-13 11:30:09.224677,-338
2021-09-13 11:30:09.224687,34
2021-09-13 11:30:09.224696,-63
2021-09-13 11:30:09.224706,-176
2021-09-13 11:30:09.224715,-53
2021-09-13 11:30:09.224725,-26
2021-09-13 11:30:09.224735,-73
2021-09-13 11:30:09.449247,-36
2021-09-13 11:30:09.449279,-4
2021-09-13 11:30:09.449290,-19
2021-09-13 11:30:09.449300,-17
2021-09-13 11:30:09.449310,2
2021-09-13 11:30:09.449320,19
2021-09-13 11:30:09.449330,29
2021-09-13 11:30:09.449340,34
2021-09-13 11:30:09.449360,31
2021-09-13 11:30:09.449371,26
2021-09-13 11:30:09.449380,41
2021-09-13 11:30:09.449390,66
2021-09-13 11:30:09.449400,80
2021-09-13 11:30:09.449410,100
2021-09-13 11:30:09.449419,117
2021-09-13 11:30:09.449429,122
2021-09-13 11:30:09.449439,134
2021-09-13 11:30:09.449449,149
2021-09-13 11:30:09.449459,156
2021-09-13 11:30:09.449468,156
2021-09-13 11:30:09.449478,134
2021-09-13 11:30:09.449488,102
2021-09-13 11:30:09.449497,68
2021-09-13 11:30:09.449507,24
2021-09-13 11:30:09.449517,-4
2021-09-13 11:30:09.449527,-24
2021-09-13 11:30:09.449537,-44
2021-09-13 11:30:09.449546,-61
2021-09-13 11:30:09.449556,-63
2021-09-13 11:30:09.449566,-51
