time,ecg
2021-08-09 20:29:01.253216,57
2021-08-09 20:29:01.253216,66
2021-08-09 20:29:01.253216,66
2021-08-09 20:29:01.253216,66
2021-08-09 20:29:01.253216,64
2021-08-09 20:29:01.253216,45
2021-08-09 20:29:01.253216,35
2021-08-09 20:29:01.253216,23
2021-08-09 20:29:01.253216,4
2021-08-09 20:29:01.253216,-7
2021-08-09 20:29:01.253216,-23
2021-08-09 20:29:01.253216,-38
2021-08-09 20:29:01.253216,-47
2021-08-09 20:29:01.253216,-61
2021-08-09 20:29:01.253216,-80
2021-08-09 20:29:01.253216,-97
2021-08-09 20:29:01.253216,-95
2021-08-09 20:29:01.253216,-83
2021-08-09 20:29:01.253216,-78
2021-08-09 20:29:01.253216,-66
2021-08-09 20:29:01.253216,-59
2021-08-09 20:29:01.253216,-52
2021-08-09 20:29:01.253216,-33
2021-08-09 20:29:01.253216,-23
2021-08-09 20:29:01.253216,-21
2021-08-09 20:29:01.253216,-19
2021-08-09 20:29:01.253216,-16
2021-08-09 20:29:01.253216,-16
2021-08-09 20:29:01.253216,-21
2021-08-09 20:29:01.253216,-19
2021-08-09 20:29:01.253216,-14
2021-08-09 20:29:01.253216,-16
2021-08-09 20:29:01.253216,-19
2021-08-09 20:29:01.253216,-23
2021-08-09 20:29:01.253216,-23
2021-08-09 20:29:01.253216,-11
2021-08-09 20:29:01.253216,-16
2021-08-09 20:29:01.253216,-19
2021-08-09 20:29:01.253216,-23
2021-08-09 20:29:01.253216,-28
2021-08-09 20:29:01.253216,-19
2021-08-09 20:29:01.253216,2
2021-08-09 20:29:01.253216,19
2021-08-09 20:29:01.253216,23
2021-08-09 20:29:01.253216,16
2021-08-09 20:29:01.253216,9
2021-08-09 20:29:01.253216,-4
2021-08-09 20:29:01.253216,-11
2021-08-09 20:29:01.253216,-11
2021-08-09 20:29:01.253216,-4
2021-08-09 20:29:01.253216,4
2021-08-09 20:29:01.253216,-2
2021-08-09 20:29:01.253216,7
2021-08-09 20:29:01.253216,188
2021-08-09 20:29:01.253216,761
2021-08-09 20:29:01.253216,1604
2021-08-09 20:29:01.253216,1601
2021-08-09 20:29:01.253216,278
2021-08-09 20:29:01.253216,-578
2021-08-09 20:29:01.253216,-176
2021-08-09 20:29:01.253216,9
2021-08-09 20:29:01.253216,-249
2021-08-09 20:29:01.253216,-204
2021-08-09 20:29:01.253216,-83
2021-08-09 20:29:01.253216,-140
2021-08-09 20:29:01.253216,-133
2021-08-09 20:29:01.253216,-66
2021-08-09 20:29:01.253216,-71
2021-08-09 20:29:01.253216,-76
2021-08-09 20:29:01.253216,-42
2021-08-09 20:29:01.253216,-35
2021-08-09 20:29:01.253216,-33
2021-08-09 20:29:01.253216,-16
2021-08-09 20:29:01.717322,-4
2021-08-09 20:29:01.717322,7
2021-08-09 20:29:01.717322,21
2021-08-09 20:29:01.717322,35
2021-08-09 20:29:01.717322,42
2021-08-09 20:29:01.717322,49
2021-08-09 20:29:01.717322,61
2021-08-09 20:29:01.717322,59
2021-08-09 20:29:01.717322,64
2021-08-09 20:29:01.717322,64
2021-08-09 20:29:01.717322,42
2021-08-09 20:29:01.717322,21
2021-08-09 20:29:01.717322,14
2021-08-09 20:29:01.717322,7
2021-08-09 20:29:01.717322,-7
2021-08-09 20:29:01.717322,-28
2021-08-09 20:29:01.717322,-40
2021-08-09 20:29:01.717322,-49
2021-08-09 20:29:01.717322,-66
2021-08-09 20:29:01.717322,-80
2021-08-09 20:29:01.717322,-92
2021-08-09 20:29:01.717322,-97
2021-08-09 20:29:01.717322,-99
2021-08-09 20:29:01.717322,-107
2021-08-09 20:29:01.717322,-102
2021-08-09 20:29:01.717322,-90
2021-08-09 20:29:01.717322,-85
2021-08-09 20:29:01.717322,-73
2021-08-09 20:29:01.717322,-61
2021-08-09 20:29:01.717322,-52
2021-08-09 20:29:01.717322,-42
2021-08-09 20:29:01.717322,-40
2021-08-09 20:29:01.717322,-30
2021-08-09 20:29:01.717322,-23
2021-08-09 20:29:01.717322,-21
2021-08-09 20:29:01.717322,-19
2021-08-09 20:29:01.717322,-23
2021-08-09 20:29:01.717322,-26
2021-08-09 20:29:01.717322,-33
2021-08-09 20:29:01.717322,-33
2021-08-09 20:29:01.717322,-21
2021-08-09 20:29:01.717322,-26
2021-08-09 20:29:01.717322,-30
2021-08-09 20:29:01.717322,-26
2021-08-09 20:29:01.717322,-28
2021-08-09 20:29:01.717322,-26
2021-08-09 20:29:01.717322,-19
2021-08-09 20:29:01.717322,-19
2021-08-09 20:29:01.717322,-23
2021-08-09 20:29:01.717322,-21
2021-08-09 20:29:01.717322,2
2021-08-09 20:29:01.717322,16
2021-08-09 20:29:01.717322,14
2021-08-09 20:29:01.717322,14
2021-08-09 20:29:01.717322,2
2021-08-09 20:29:01.717322,-11
2021-08-09 20:29:01.717322,-21
2021-08-09 20:29:01.717322,-23
2021-08-09 20:29:01.717322,-7
2021-08-09 20:29:01.717322,0
2021-08-09 20:29:01.717322,0
2021-08-09 20:29:01.717322,16
2021-08-09 20:29:01.717322,161
2021-08-09 20:29:01.717322,695
2021-08-09 20:29:01.717322,1544
2021-08-09 20:29:01.717322,1625
2021-08-09 20:29:01.717322,371
2021-08-09 20:29:01.717322,-545
2021-08-09 20:29:01.717322,-195
2021-08-09 20:29:01.717322,19
2021-08-09 20:29:01.717322,-240
2021-08-09 20:29:01.717322,-207
2021-08-09 20:29:01.717322,-73
2021-08-09 20:29:02.302523,-126
2021-08-09 20:29:02.302523,-133
2021-08-09 20:29:02.302523,-80
2021-08-09 20:29:02.302523,-76
2021-08-09 20:29:02.302523,-73
2021-08-09 20:29:02.302523,-47
2021-08-09 20:29:02.302523,-33
2021-08-09 20:29:02.302523,-45
2021-08-09 20:29:02.302523,-38
2021-08-09 20:29:02.302523,-9
2021-08-09 20:29:02.302523,0
2021-08-09 20:29:02.302523,7
2021-08-09 20:29:02.302523,16
2021-08-09 20:29:02.302523,28
2021-08-09 20:29:02.302523,47
2021-08-09 20:29:02.302523,54
2021-08-09 20:29:02.302523,59
2021-08-09 20:29:02.302523,59
2021-08-09 20:29:02.302523,52
2021-08-09 20:29:02.302523,49
2021-08-09 20:29:02.302523,35
2021-08-09 20:29:02.302523,26
2021-08-09 20:29:02.302523,23
2021-08-09 20:29:02.302523,9
2021-08-09 20:29:02.302523,-7
2021-08-09 20:29:02.302523,-21
2021-08-09 20:29:02.302523,-38
2021-08-09 20:29:02.302523,-49
2021-08-09 20:29:02.302523,-64
2021-08-09 20:29:02.302523,-76
2021-08-09 20:29:02.302523,-85
2021-08-09 20:29:02.302523,-90
2021-08-09 20:29:02.302523,-88
2021-08-09 20:29:02.302523,-92
2021-08-09 20:29:02.302523,-80
2021-08-09 20:29:02.302523,-66
2021-08-09 20:29:02.302523,-64
2021-08-09 20:29:02.302523,-54
2021-08-09 20:29:02.302523,-45
2021-08-09 20:29:02.302523,-38
2021-08-09 20:29:02.302523,-30
2021-08-09 20:29:02.302523,-30
2021-08-09 20:29:02.302523,-30
2021-08-09 20:29:02.302523,-30
2021-08-09 20:29:02.302523,-33
2021-08-09 20:29:02.302523,-28
2021-08-09 20:29:02.302523,-23
2021-08-09 20:29:02.302523,-26
2021-08-09 20:29:02.302523,-26
2021-08-09 20:29:02.302523,-23
2021-08-09 20:29:02.302523,-23
2021-08-09 20:29:02.302523,-30
2021-08-09 20:29:02.302523,-30
2021-08-09 20:29:02.302523,-19
2021-08-09 20:29:02.302523,-21
2021-08-09 20:29:02.302523,-19
2021-08-09 20:29:02.302523,-11
2021-08-09 20:29:02.302523,-9
2021-08-09 20:29:02.302523,-7
2021-08-09 20:29:02.302523,-11
2021-08-09 20:29:02.302523,-19
2021-08-09 20:29:02.302523,-14
2021-08-09 20:29:02.302523,7
2021-08-09 20:29:02.302523,28
2021-08-09 20:29:02.302523,30
2021-08-09 20:29:02.302523,26
2021-08-09 20:29:02.302523,16
2021-08-09 20:29:02.302523,-2
2021-08-09 20:29:02.302523,-7
2021-08-09 20:29:02.302523,2
2021-08-09 20:29:02.302523,2
2021-08-09 20:29:02.302523,7
2021-08-09 20:29:02.302523,7
2021-08-09 20:29:02.838529,11
2021-08-09 20:29:02.838529,97
2021-08-09 20:29:02.838529,471
2021-08-09 20:29:02.838529,1256
2021-08-09 20:29:02.838529,1728
2021-08-09 20:29:02.838529,840
2021-08-09 20:29:02.838529,-395
2021-08-09 20:29:02.838529,-361
2021-08-09 20:29:02.838529,42
2021-08-09 20:29:02.838529,-145
2021-08-09 20:29:02.838529,-245
2021-08-09 20:29:02.838529,-104
2021-08-09 20:29:02.838529,-111
2021-08-09 20:29:02.838529,-145
2021-08-09 20:29:02.838529,-88
2021-08-09 20:29:02.838529,-66
2021-08-09 20:29:02.838529,-73
2021-08-09 20:29:02.838529,-59
2021-08-09 20:29:02.838529,-42
2021-08-09 20:29:02.838529,-33
2021-08-09 20:29:02.838529,-28
2021-08-09 20:29:02.838529,-11
2021-08-09 20:29:02.838529,2
2021-08-09 20:29:02.838529,0
2021-08-09 20:29:02.838529,9
2021-08-09 20:29:02.838529,30
2021-08-09 20:29:02.838529,40
2021-08-09 20:29:02.838529,42
2021-08-09 20:29:02.838529,45
2021-08-09 20:29:02.838529,54
2021-08-09 20:29:02.838529,49
2021-08-09 20:29:02.838529,40
2021-08-09 20:29:02.838529,38
2021-08-09 20:29:02.838529,26
2021-08-09 20:29:02.838529,9
2021-08-09 20:29:02.838529,-7
2021-08-09 20:29:02.838529,-23
2021-08-09 20:29:02.838529,-28
2021-08-09 20:29:02.838529,-42
2021-08-09 20:29:02.838529,-54
2021-08-09 20:29:02.838529,-59
2021-08-09 20:29:02.838529,-73
2021-08-09 20:29:02.838529,-80
2021-08-09 20:29:02.838529,-83
2021-08-09 20:29:02.838529,-85
2021-08-09 20:29:02.838529,-83
2021-08-09 20:29:02.838529,-78
2021-08-09 20:29:02.838529,-69
2021-08-09 20:29:02.838529,-59
2021-08-09 20:29:02.838529,-57
2021-08-09 20:29:02.838529,-49
2021-08-09 20:29:02.838529,-42
2021-08-09 20:29:02.838529,-42
2021-08-09 20:29:02.838529,-35
2021-08-09 20:29:02.838529,-33
2021-08-09 20:29:02.838529,-33
2021-08-09 20:29:02.838529,-35
2021-08-09 20:29:02.838529,-30
2021-08-09 20:29:02.838529,-19
2021-08-09 20:29:02.838529,-23
2021-08-09 20:29:02.838529,-28
2021-08-09 20:29:02.838529,-26
2021-08-09 20:29:02.838529,-26
2021-08-09 20:29:02.839556,-28
2021-08-09 20:29:02.839556,-26
2021-08-09 20:29:02.839556,-23
2021-08-09 20:29:02.839556,-26
2021-08-09 20:29:02.839556,-33
2021-08-09 20:29:02.839556,-23
2021-08-09 20:29:02.839556,-11
2021-08-09 20:29:02.839556,-16
2021-08-09 20:29:02.839556,-19
2021-08-09 20:29:02.839556,-21
2021-08-09 20:29:03.375098,-14
2021-08-09 20:29:03.375098,2
2021-08-09 20:29:03.375098,14
2021-08-09 20:29:03.375098,23
2021-08-09 20:29:03.375098,23
2021-08-09 20:29:03.375098,16
2021-08-09 20:29:03.375098,2
2021-08-09 20:29:03.375098,-26
2021-08-09 20:29:03.375098,-38
2021-08-09 20:29:03.375098,-23
2021-08-09 20:29:03.375098,-11
2021-08-09 20:29:03.375098,-9
2021-08-09 20:29:03.375098,-14
2021-08-09 20:29:03.375098,59
2021-08-09 20:29:03.375098,388
2021-08-09 20:29:03.375098,1092
2021-08-09 20:29:03.375098,1616
2021-08-09 20:29:03.375098,866
2021-08-09 20:29:03.375098,-411
2021-08-09 20:29:03.375098,-442
2021-08-09 20:29:03.375098,28
2021-08-09 20:29:03.375098,-133
2021-08-09 20:29:03.375098,-252
2021-08-09 20:29:03.375098,-92
2021-08-09 20:29:03.375098,-90
2021-08-09 20:29:03.375098,-147
2021-08-09 20:29:03.375098,-92
2021-08-09 20:29:03.375098,-73
2021-08-09 20:29:03.375098,-95
2021-08-09 20:29:03.375098,-69
2021-08-09 20:29:03.375098,-42
2021-08-09 20:29:03.375098,-40
2021-08-09 20:29:03.375098,-26
2021-08-09 20:29:03.375098,-11
2021-08-09 20:29:03.375098,-4
2021-08-09 20:29:03.375098,7
2021-08-09 20:29:03.375098,19
2021-08-09 20:29:03.375098,30
2021-08-09 20:29:03.375098,38
2021-08-09 20:29:03.375098,47
2021-08-09 20:29:03.375098,52
2021-08-09 20:29:03.375098,47
2021-08-09 20:29:03.375098,54
2021-08-09 20:29:03.375098,47
2021-08-09 20:29:03.375098,23
2021-08-09 20:29:03.375098,9
2021-08-09 20:29:03.375098,0
2021-08-09 20:29:03.375098,0
2021-08-09 20:29:03.375098,-9
2021-08-09 20:29:03.375098,-33
2021-08-09 20:29:03.375098,-45
2021-08-09 20:29:03.375098,-49
2021-08-09 20:29:03.375098,-64
2021-08-09 20:29:03.375098,-76
2021-08-09 20:29:03.375098,-78
2021-08-09 20:29:03.375098,-73
2021-08-09 20:29:03.375098,-78
2021-08-09 20:29:03.375098,-83
2021-08-09 20:29:03.375098,-71
2021-08-09 20:29:03.375098,-61
2021-08-09 20:29:03.375098,-52
2021-08-09 20:29:03.375098,-40
2021-08-09 20:29:03.375098,-30
2021-08-09 20:29:03.375098,-21
2021-08-09 20:29:03.375098,-21
2021-08-09 20:29:03.375098,-23
2021-08-09 20:29:03.375098,-14
2021-08-09 20:29:03.375098,-14
2021-08-09 20:29:03.375098,-14
2021-08-09 20:29:03.375098,-11
2021-08-09 20:29:03.375098,-16
2021-08-09 20:29:03.375098,-23
2021-08-09 20:29:03.375098,-23
2021-08-09 20:29:03.959863,-21
2021-08-09 20:29:03.959863,-23
2021-08-09 20:29:03.959863,-26
2021-08-09 20:29:03.959863,-33
2021-08-09 20:29:03.959863,-45
2021-08-09 20:29:03.959863,-45
2021-08-09 20:29:03.959863,-30
2021-08-09 20:29:03.959863,-28
2021-08-09 20:29:03.959863,-23
2021-08-09 20:29:03.959863,-26
2021-08-09 20:29:03.959863,-38
2021-08-09 20:29:03.959863,-23
2021-08-09 20:29:03.959863,2
2021-08-09 20:29:03.959863,11
2021-08-09 20:29:03.959863,19
2021-08-09 20:29:03.959863,21
2021-08-09 20:29:03.959863,7
2021-08-09 20:29:03.959863,-11
2021-08-09 20:29:03.959863,-16
2021-08-09 20:29:03.959863,-14
2021-08-09 20:29:03.959863,-16
2021-08-09 20:29:03.959863,-2
2021-08-09 20:29:03.959863,0
2021-08-09 20:29:03.959863,9
2021-08-09 20:29:03.959863,166
2021-08-09 20:29:03.959863,680
2021-08-09 20:29:03.959863,1463
2021-08-09 20:29:03.959863,1504
2021-08-09 20:29:03.959863,259
2021-08-09 20:29:03.959863,-587
2021-08-09 20:29:03.959863,-180
2021-08-09 20:29:03.959863,30
2021-08-09 20:29:03.959863,-230
2021-08-09 20:29:03.959863,-192
2021-08-09 20:29:03.959863,-69
2021-08-09 20:29:03.959863,-130
2021-08-09 20:29:03.959863,-135
2021-08-09 20:29:03.959863,-73
2021-08-09 20:29:03.959863,-73
2021-08-09 20:29:03.959863,-73
2021-08-09 20:29:03.959863,-47
2021-08-09 20:29:03.959863,-40
2021-08-09 20:29:03.959863,-33
2021-08-09 20:29:03.959863,-16
2021-08-09 20:29:03.959863,0
2021-08-09 20:29:03.959863,16
2021-08-09 20:29:03.959863,19
2021-08-09 20:29:03.959863,28
2021-08-09 20:29:03.959863,45
2021-08-09 20:29:03.959863,54
2021-08-09 20:29:03.959863,69
2021-08-09 20:29:03.959863,71
2021-08-09 20:29:03.959863,66
2021-08-09 20:29:03.959863,66
2021-08-09 20:29:03.959863,61
2021-08-09 20:29:03.959863,52
2021-08-09 20:29:03.959863,35
2021-08-09 20:29:03.959863,21
2021-08-09 20:29:03.959863,14
2021-08-09 20:29:03.959863,2
2021-08-09 20:29:03.959863,-9
2021-08-09 20:29:03.959863,-26
2021-08-09 20:29:03.959863,-38
2021-08-09 20:29:03.959863,-42
2021-08-09 20:29:03.959863,-61
2021-08-09 20:29:03.959863,-76
2021-08-09 20:29:03.959863,-78
2021-08-09 20:29:03.959863,-83
2021-08-09 20:29:03.959863,-71
2021-08-09 20:29:03.959863,-59
2021-08-09 20:29:03.959863,-52
2021-08-09 20:29:03.959863,-42
2021-08-09 20:29:03.959863,-35
2021-08-09 20:29:04.545077,-21
2021-08-09 20:29:04.545077,-4
2021-08-09 20:29:04.545077,-7
2021-08-09 20:29:04.545077,-7
2021-08-09 20:29:04.545077,-2
2021-08-09 20:29:04.545077,-2
2021-08-09 20:29:04.545077,-9
2021-08-09 20:29:04.545077,-21
2021-08-09 20:29:04.545077,-26
2021-08-09 20:29:04.545077,-23
2021-08-09 20:29:04.545077,-26
2021-08-09 20:29:04.545077,-35
2021-08-09 20:29:04.545077,-42
2021-08-09 20:29:04.545077,-28
2021-08-09 20:29:04.545077,-26
2021-08-09 20:29:04.545077,-38
2021-08-09 20:29:04.545077,-30
2021-08-09 20:29:04.545077,-19
2021-08-09 20:29:04.545077,-21
2021-08-09 20:29:04.545077,-23
2021-08-09 20:29:04.545077,-21
2021-08-09 20:29:04.545077,-11
2021-08-09 20:29:04.545077,-9
2021-08-09 20:29:04.545077,-14
2021-08-09 20:29:04.545077,-4
2021-08-09 20:29:04.545077,4
2021-08-09 20:29:04.545077,11
2021-08-09 20:29:04.545077,21
2021-08-09 20:29:04.545077,28
2021-08-09 20:29:04.545077,23
2021-08-09 20:29:04.545077,2
2021-08-09 20:29:04.545077,-4
2021-08-09 20:29:04.545077,0
2021-08-09 20:29:04.545077,-9
2021-08-09 20:29:04.545077,-7
2021-08-09 20:29:04.545077,7
2021-08-09 20:29:04.545077,11
2021-08-09 20:29:04.545077,114
2021-08-09 20:29:04.545077,557
2021-08-09 20:29:04.545077,1399
2021-08-09 20:29:04.545077,1770
2021-08-09 20:29:04.545077,718
2021-08-09 20:29:04.545077,-464
2021-08-09 20:29:04.545077,-321
2021-08-09 20:29:04.545077,26
2021-08-09 20:29:04.545077,-207
2021-08-09 20:29:04.545077,-259
2021-08-09 20:29:04.545077,-102
2021-08-09 20:29:04.545077,-126
2021-08-09 20:29:04.545077,-157
2021-08-09 20:29:04.545077,-90
2021-08-09 20:29:04.545077,-80
2021-08-09 20:29:04.545077,-92
2021-08-09 20:29:04.545077,-64
2021-08-09 20:29:04.545077,-49
2021-08-09 20:29:04.545077,-40
2021-08-09 20:29:04.545077,-26
2021-08-09 20:29:04.545077,-14
2021-08-09 20:29:04.545077,-4
2021-08-09 20:29:04.545077,4
2021-08-09 20:29:04.545077,21
2021-08-09 20:29:04.545077,40
2021-08-09 20:29:04.545077,49
2021-08-09 20:29:04.545077,59
2021-08-09 20:29:04.545077,64
2021-08-09 20:29:04.545077,66
2021-08-09 20:29:04.545077,69
2021-08-09 20:29:04.545077,64
2021-08-09 20:29:04.545077,61
2021-08-09 20:29:04.545077,49
2021-08-09 20:29:04.545077,33
2021-08-09 20:29:04.545077,21
2021-08-09 20:29:04.545077,11
2021-08-09 20:29:05.176768,0
2021-08-09 20:29:05.176768,-16
2021-08-09 20:29:05.176768,-28
2021-08-09 20:29:05.176768,-38
2021-08-09 20:29:05.176768,-57
2021-08-09 20:29:05.176768,-73
2021-08-09 20:29:05.176768,-73
2021-08-09 20:29:05.176768,-78
2021-08-09 20:29:05.176768,-78
2021-08-09 20:29:05.176768,-78
2021-08-09 20:29:05.176768,-83
2021-08-09 20:29:05.176768,-76
2021-08-09 20:29:05.176768,-64
2021-08-09 20:29:05.176768,-54
2021-08-09 20:29:05.176768,-49
2021-08-09 20:29:05.176768,-42
2021-08-09 20:29:05.176768,-30
2021-08-09 20:29:05.176768,-33
2021-08-09 20:29:05.176768,-30
2021-08-09 20:29:05.176768,-23
2021-08-09 20:29:05.176768,-23
2021-08-09 20:29:05.176768,-21
2021-08-09 20:29:05.176768,-23
2021-08-09 20:29:05.176768,-26
2021-08-09 20:29:05.176768,-21
2021-08-09 20:29:05.176768,-26
2021-08-09 20:29:05.176768,-30
2021-08-09 20:29:05.176768,-26
2021-08-09 20:29:05.176768,-26
2021-08-09 20:29:05.176768,-21
2021-08-09 20:29:05.176768,-21
2021-08-09 20:29:05.176768,-21
2021-08-09 20:29:05.176768,-14
2021-08-09 20:29:05.176768,-11
2021-08-09 20:29:05.176768,-9
2021-08-09 20:29:05.176768,-9
2021-08-09 20:29:05.176768,-11
2021-08-09 20:29:05.176768,-14
2021-08-09 20:29:05.176768,-14
2021-08-09 20:29:05.176768,4
2021-08-09 20:29:05.176768,23
2021-08-09 20:29:05.176768,23
2021-08-09 20:29:05.176768,21
2021-08-09 20:29:05.176768,19
2021-08-09 20:29:05.176768,2
2021-08-09 20:29:05.176768,-14
2021-08-09 20:29:05.176768,-19
2021-08-09 20:29:05.176768,-11
2021-08-09 20:29:05.177811,-11
2021-08-09 20:29:05.177811,-21
2021-08-09 20:29:05.177811,-7
2021-08-09 20:29:05.177811,121
2021-08-09 20:29:05.177811,583
2021-08-09 20:29:05.177811,1397
2021-08-09 20:29:05.177811,1649
2021-08-09 20:29:05.177811,540
2021-08-09 20:29:05.177811,-530
2021-08-09 20:29:05.177811,-288
2021-08-09 20:29:05.177811,30
2021-08-09 20:29:05.177811,-211
2021-08-09 20:29:05.177811,-240
2021-08-09 20:29:05.177811,-97
2021-08-09 20:29:05.177811,-130
2021-08-09 20:29:05.177811,-149
2021-08-09 20:29:05.177811,-92
2021-08-09 20:29:05.177811,-78
2021-08-09 20:29:05.177811,-80
2021-08-09 20:29:05.177811,-64
2021-08-09 20:29:05.177811,-45
2021-08-09 20:29:05.177811,-40
2021-08-09 20:29:05.177811,-28
2021-08-09 20:29:05.177811,-11
2021-08-09 20:29:05.177811,-2
2021-08-09 20:29:05.665473,7
2021-08-09 20:29:05.665473,16
2021-08-09 20:29:05.665473,30
2021-08-09 20:29:05.665473,47
2021-08-09 20:29:05.665473,54
2021-08-09 20:29:05.665473,64
2021-08-09 20:29:05.665473,64
2021-08-09 20:29:05.665473,47
2021-08-09 20:29:05.665473,40
2021-08-09 20:29:05.665473,40
2021-08-09 20:29:05.665473,26
2021-08-09 20:29:05.665473,11
2021-08-09 20:29:05.665473,-2
2021-08-09 20:29:05.665473,-14
2021-08-09 20:29:05.665473,-35
2021-08-09 20:29:05.665473,-52
2021-08-09 20:29:05.665473,-57
2021-08-09 20:29:05.665473,-66
2021-08-09 20:29:05.665473,-78
2021-08-09 20:29:05.665473,-90
2021-08-09 20:29:05.665473,-99
2021-08-09 20:29:05.665473,-95
2021-08-09 20:29:05.665473,-90
2021-08-09 20:29:05.665473,-85
2021-08-09 20:29:05.665473,-73
2021-08-09 20:29:05.665473,-69
2021-08-09 20:29:05.665473,-59
2021-08-09 20:29:05.665473,-49
2021-08-09 20:29:05.665473,-47
2021-08-09 20:29:05.665473,-35
2021-08-09 20:29:05.665473,-28
2021-08-09 20:29:05.665473,-33
2021-08-09 20:29:05.665473,-33
2021-08-09 20:29:05.665473,-33
2021-08-09 20:29:05.665473,-30
2021-08-09 20:29:05.665473,-28
2021-08-09 20:29:05.665473,-28
2021-08-09 20:29:05.665473,-28
2021-08-09 20:29:05.665473,-28
2021-08-09 20:29:05.665473,-26
2021-08-09 20:29:05.665473,-28
2021-08-09 20:29:05.665473,-33
2021-08-09 20:29:05.665473,-28
2021-08-09 20:29:05.665473,-30
2021-08-09 20:29:05.665473,-33
2021-08-09 20:29:05.665473,-30
2021-08-09 20:29:05.665473,-30
2021-08-09 20:29:05.665473,-26
2021-08-09 20:29:05.665473,-28
2021-08-09 20:29:05.665473,-33
2021-08-09 20:29:05.665473,-23
2021-08-09 20:29:05.665473,-11
2021-08-09 20:29:05.665473,4
2021-08-09 20:29:05.665473,4
2021-08-09 20:29:05.665473,-2
2021-08-09 20:29:05.665473,0
2021-08-09 20:29:05.665473,-14
2021-08-09 20:29:05.665473,-33
2021-08-09 20:29:05.665473,-40
2021-08-09 20:29:05.665473,-33
2021-08-09 20:29:05.665473,-19
2021-08-09 20:29:05.665473,-19
2021-08-09 20:29:05.665473,-23
2021-08-09 20:29:05.665473,69
2021-08-09 20:29:05.665473,437
2021-08-09 20:29:05.665473,1168
2021-08-09 20:29:05.665473,1566
2021-08-09 20:29:05.665473,647
2021-08-09 20:29:05.665473,-533
2021-08-09 20:29:05.665473,-395
2021-08-09 20:29:05.666476,33
2021-08-09 20:29:05.666476,-185
2021-08-09 20:29:05.666476,-268
2021-08-09 20:29:06.202823,-97
2021-08-09 20:29:06.202823,-116
2021-08-09 20:29:06.202823,-159
2021-08-09 20:29:06.202823,-92
2021-08-09 20:29:06.202823,-71
2021-08-09 20:29:06.202823,-78
2021-08-09 20:29:06.202823,-52
2021-08-09 20:29:06.202823,-33
2021-08-09 20:29:06.202823,-30
2021-08-09 20:29:06.202823,-26
2021-08-09 20:29:06.202823,-19
2021-08-09 20:29:06.202823,-2
2021-08-09 20:29:06.202823,14
2021-08-09 20:29:06.202823,28
2021-08-09 20:29:06.202823,35
2021-08-09 20:29:06.202823,45
2021-08-09 20:29:06.202823,61
2021-08-09 20:29:06.202823,64
2021-08-09 20:29:06.202823,57
2021-08-09 20:29:06.202823,49
2021-08-09 20:29:06.202823,47
2021-08-09 20:29:06.202823,45
2021-08-09 20:29:06.202823,28
2021-08-09 20:29:06.202823,16
2021-08-09 20:29:06.202823,9
2021-08-09 20:29:06.202823,-9
2021-08-09 20:29:06.202823,-16
2021-08-09 20:29:06.202823,-23
2021-08-09 20:29:06.202823,-45
2021-08-09 20:29:06.202823,-64
2021-08-09 20:29:06.202823,-80
2021-08-09 20:29:06.202823,-83
2021-08-09 20:29:06.202823,-78
2021-08-09 20:29:06.202823,-80
2021-08-09 20:29:06.202823,-73
2021-08-09 20:29:06.202823,-66
2021-08-09 20:29:06.202823,-54
2021-08-09 20:29:06.202823,-42
2021-08-09 20:29:06.202823,-35
2021-08-09 20:29:06.202823,-28
2021-08-09 20:29:06.202823,-19
2021-08-09 20:29:06.202823,-16
2021-08-09 20:29:06.202823,-14
2021-08-09 20:29:06.202823,-19
2021-08-09 20:29:06.202823,-16
2021-08-09 20:29:06.202823,-16
2021-08-09 20:29:06.202823,-16
2021-08-09 20:29:06.202823,-16
2021-08-09 20:29:06.202823,-23
2021-08-09 20:29:06.202823,-23
2021-08-09 20:29:06.202823,-19
2021-08-09 20:29:06.202823,-26
2021-08-09 20:29:06.202823,-23
2021-08-09 20:29:06.202823,-14
2021-08-09 20:29:06.202823,-21
2021-08-09 20:29:06.202823,-30
2021-08-09 20:29:06.202823,-30
2021-08-09 20:29:06.202823,-23
2021-08-09 20:29:06.202823,-16
2021-08-09 20:29:06.202823,-19
2021-08-09 20:29:06.202823,-28
2021-08-09 20:29:06.202823,-26
2021-08-09 20:29:06.202823,0
2021-08-09 20:29:06.202823,9
2021-08-09 20:29:06.202823,0
2021-08-09 20:29:06.202823,7
2021-08-09 20:29:06.202823,-7
2021-08-09 20:29:06.202823,-35
2021-08-09 20:29:06.202823,-33
2021-08-09 20:29:06.202823,-26
2021-08-09 20:29:06.202823,-28
2021-08-09 20:29:06.202823,-28
2021-08-09 20:29:06.202823,-28
2021-08-09 20:29:06.787448,9
2021-08-09 20:29:06.787448,242
2021-08-09 20:29:06.787448,904
2021-08-09 20:29:06.787448,1673
2021-08-09 20:29:06.787448,1328
2021-08-09 20:29:06.787448,-59
2021-08-09 20:29:06.787448,-568
2021-08-09 20:29:06.787448,-102
2021-08-09 20:29:06.787448,-83
2021-08-09 20:29:06.787448,-304
2021-08-09 20:29:06.787448,-190
2021-08-09 20:29:06.787448,-111
2021-08-09 20:29:06.787448,-173
2021-08-09 20:29:06.787448,-145
2021-08-09 20:29:06.787448,-97
2021-08-09 20:29:06.787448,-102
2021-08-09 20:29:06.787448,-92
2021-08-09 20:29:06.787448,-71
2021-08-09 20:29:06.787448,-57
2021-08-09 20:29:06.787448,-42
2021-08-09 20:29:06.787448,-28
2021-08-09 20:29:06.787448,-16
2021-08-09 20:29:06.787448,-9
2021-08-09 20:29:06.787448,2
2021-08-09 20:29:06.787448,21
2021-08-09 20:29:06.787448,28
2021-08-09 20:29:06.787448,42
2021-08-09 20:29:06.787448,54
2021-08-09 20:29:06.787448,54
2021-08-09 20:29:06.787448,57
2021-08-09 20:29:06.787448,57
2021-08-09 20:29:06.787448,54
2021-08-09 20:29:06.787448,42
2021-08-09 20:29:06.787448,26
2021-08-09 20:29:06.787448,16
2021-08-09 20:29:06.787448,2
2021-08-09 20:29:06.787448,-14
2021-08-09 20:29:06.787448,-28
2021-08-09 20:29:06.787448,-47
2021-08-09 20:29:06.787448,-54
2021-08-09 20:29:06.787448,-69
2021-08-09 20:29:06.787448,-90
2021-08-09 20:29:06.787448,-95
2021-08-09 20:29:06.787448,-92
2021-08-09 20:29:06.787448,-90
2021-08-09 20:29:06.787448,-88
2021-08-09 20:29:06.787448,-92
2021-08-09 20:29:06.787448,-88
2021-08-09 20:29:06.787448,-78
2021-08-09 20:29:06.787448,-66
2021-08-09 20:29:06.787448,-52
2021-08-09 20:29:06.787448,-47
2021-08-09 20:29:06.787448,-33
2021-08-09 20:29:06.787448,-30
2021-08-09 20:29:06.787448,-40
2021-08-09 20:29:06.787448,-38
2021-08-09 20:29:06.787448,-35
2021-08-09 20:29:06.787448,-35
2021-08-09 20:29:06.787448,-40
2021-08-09 20:29:06.787448,-42
2021-08-09 20:29:06.787448,-33
2021-08-09 20:29:06.787448,-35
2021-08-09 20:29:06.787448,-42
2021-08-09 20:29:06.787448,-30
2021-08-09 20:29:06.787448,-30
2021-08-09 20:29:06.787448,-35
2021-08-09 20:29:06.787448,-35
2021-08-09 20:29:06.787448,-33
2021-08-09 20:29:06.787448,-26
2021-08-09 20:29:06.787448,-28
2021-08-09 20:29:06.787448,-28
2021-08-09 20:29:06.787448,-30
2021-08-09 20:29:06.787448,-40
2021-08-09 20:29:07.323569,-28
2021-08-09 20:29:07.323569,0
2021-08-09 20:29:07.323569,9
2021-08-09 20:29:07.323569,7
2021-08-09 20:29:07.323569,2
2021-08-09 20:29:07.323569,-7
2021-08-09 20:29:07.323569,-21
2021-08-09 20:29:07.323569,-30
2021-08-09 20:29:07.323569,-30
2021-08-09 20:29:07.323569,-42
2021-08-09 20:29:07.323569,-47
2021-08-09 20:29:07.323569,-42
2021-08-09 20:29:07.323569,-35
2021-08-09 20:29:07.323569,78
2021-08-09 20:29:07.323569,545
2021-08-09 20:29:07.323569,1373
2021-08-09 20:29:07.323569,1623
2021-08-09 20:29:07.323569,497
2021-08-09 20:29:07.323569,-549
2021-08-09 20:29:07.323569,-295
2021-08-09 20:29:07.323569,-2
2021-08-09 20:29:07.323569,-245
2021-08-09 20:29:07.323569,-261
2021-08-09 20:29:07.323569,-119
2021-08-09 20:29:07.323569,-149
2021-08-09 20:29:07.323569,-166
2021-08-09 20:29:07.323569,-102
2021-08-09 20:29:07.323569,-97
2021-08-09 20:29:07.323569,-107
2021-08-09 20:29:07.323569,-73
2021-08-09 20:29:07.323569,-57
2021-08-09 20:29:07.323569,-52
2021-08-09 20:29:07.323569,-33
2021-08-09 20:29:07.323569,-16
2021-08-09 20:29:07.323569,-4
2021-08-09 20:29:07.323569,2
2021-08-09 20:29:07.323569,21
2021-08-09 20:29:07.323569,40
2021-08-09 20:29:07.323569,47
2021-08-09 20:29:07.323569,59
2021-08-09 20:29:07.323569,61
2021-08-09 20:29:07.323569,54
2021-08-09 20:29:07.323569,57
2021-08-09 20:29:07.323569,57
2021-08-09 20:29:07.323569,45
2021-08-09 20:29:07.323569,26
2021-08-09 20:29:07.323569,11
2021-08-09 20:29:07.323569,7
2021-08-09 20:29:07.323569,-11
2021-08-09 20:29:07.323569,-30
2021-08-09 20:29:07.323569,-40
2021-08-09 20:29:07.323569,-54
2021-08-09 20:29:07.323569,-69
2021-08-09 20:29:07.323569,-80
2021-08-09 20:29:07.323569,-92
2021-08-09 20:29:07.323569,-99
2021-08-09 20:29:07.323569,-97
2021-08-09 20:29:07.323569,-90
2021-08-09 20:29:07.323569,-90
2021-08-09 20:29:07.323569,-85
2021-08-09 20:29:07.323569,-69
2021-08-09 20:29:07.323569,-61
2021-08-09 20:29:07.323569,-52
2021-08-09 20:29:07.323569,-35
2021-08-09 20:29:07.323569,-33
2021-08-09 20:29:07.323569,-30
2021-08-09 20:29:07.323569,-26
2021-08-09 20:29:07.323569,-26
2021-08-09 20:29:07.323569,-21
2021-08-09 20:29:07.323569,-26
2021-08-09 20:29:07.323569,-28
2021-08-09 20:29:07.323569,-30
2021-08-09 20:29:07.323569,-28
2021-08-09 20:29:07.908257,-21
2021-08-09 20:29:07.908257,-23
2021-08-09 20:29:07.908257,-30
2021-08-09 20:29:07.908257,-30
2021-08-09 20:29:07.908257,-30
2021-08-09 20:29:07.908257,-28
2021-08-09 20:29:07.908257,-40
2021-08-09 20:29:07.908257,-54
2021-08-09 20:29:07.908257,-49
2021-08-09 20:29:07.908257,-47
2021-08-09 20:29:07.908257,-47
2021-08-09 20:29:07.908257,-38
2021-08-09 20:29:07.908257,-33
2021-08-09 20:29:07.908257,-38
2021-08-09 20:29:07.908257,-45
2021-08-09 20:29:07.908257,-28
2021-08-09 20:29:07.908257,-7
2021-08-09 20:29:07.908257,-11
2021-08-09 20:29:07.908257,-11
2021-08-09 20:29:07.908257,0
2021-08-09 20:29:07.908257,-14
2021-08-09 20:29:07.908257,-30
2021-08-09 20:29:07.908257,-45
2021-08-09 20:29:07.908257,-47
2021-08-09 20:29:07.908257,-35
2021-08-09 20:29:07.908257,-26
2021-08-09 20:29:07.908257,-21
2021-08-09 20:29:07.908257,16
2021-08-09 20:29:07.908257,242
2021-08-09 20:29:07.908257,856
2021-08-09 20:29:07.908257,1585
2021-08-09 20:29:07.908257,1306
2021-08-09 20:29:07.908257,-28
2021-08-09 20:29:07.908257,-557
2021-08-09 20:29:07.908257,-90
2021-08-09 20:29:07.908257,-66
2021-08-09 20:29:07.908257,-299
2021-08-09 20:29:07.908257,-195
2021-08-09 20:29:07.908257,-119
2021-08-09 20:29:07.908257,-173
2021-08-09 20:29:07.908257,-138
2021-08-09 20:29:07.908257,-78
2021-08-09 20:29:07.908257,-78
2021-08-09 20:29:07.908257,-76
2021-08-09 20:29:07.908257,-52
2021-08-09 20:29:07.908257,-45
2021-08-09 20:29:07.908257,-45
2021-08-09 20:29:07.908257,-28
2021-08-09 20:29:07.908257,-16
2021-08-09 20:29:07.908257,9
2021-08-09 20:29:07.908257,35
2021-08-09 20:29:07.908257,47
2021-08-09 20:29:07.908257,66
2021-08-09 20:29:07.908257,73
2021-08-09 20:29:07.908257,64
2021-08-09 20:29:07.908257,80
2021-08-09 20:29:07.908257,99
2021-08-09 20:29:07.908257,80
2021-08-09 20:29:07.908257,49
2021-08-09 20:29:07.908257,52
2021-08-09 20:29:07.908257,69
2021-08-09 20:29:07.908257,54
2021-08-09 20:29:07.908257,42
2021-08-09 20:29:07.908257,45
2021-08-09 20:29:07.908257,30
2021-08-09 20:29:07.908257,19
2021-08-09 20:29:07.908257,-2
2021-08-09 20:29:07.908257,-45
2021-08-09 20:29:07.908257,-57
2021-08-09 20:29:07.908257,-47
2021-08-09 20:29:07.908257,-54
2021-08-09 20:29:07.908257,-59
2021-08-09 20:29:07.908257,-47
2021-08-09 20:29:08.493421,-30
2021-08-09 20:29:08.493421,-23
2021-08-09 20:29:08.493421,-23
2021-08-09 20:29:08.493421,-30
2021-08-09 20:29:08.493421,-30
2021-08-09 20:29:08.493421,-23
2021-08-09 20:29:08.493421,-30
2021-08-09 20:29:08.493421,-30
2021-08-09 20:29:08.493421,-19
2021-08-09 20:29:08.493421,-26
2021-08-09 20:29:08.493421,-40
2021-08-09 20:29:08.493421,-35
2021-08-09 20:29:08.493421,-28
2021-08-09 20:29:08.493421,-38
2021-08-09 20:29:08.493421,-52
2021-08-09 20:29:08.493421,-42
2021-08-09 20:29:08.493421,-35
2021-08-09 20:29:08.493421,-47
2021-08-09 20:29:08.493421,-42
2021-08-09 20:29:08.493421,-28
2021-08-09 20:29:08.493421,-47
2021-08-09 20:29:08.493421,-61
2021-08-09 20:29:08.493421,-45
2021-08-09 20:29:08.493421,-35
2021-08-09 20:29:08.493421,-45
2021-08-09 20:29:08.493421,-54
2021-08-09 20:29:08.493421,-49
2021-08-09 20:29:08.493421,-45
2021-08-09 20:29:08.493421,-47
2021-08-09 20:29:08.493421,-40
2021-08-09 20:29:08.493421,-23
2021-08-09 20:29:08.493421,-26
2021-08-09 20:29:08.493421,-57
2021-08-09 20:29:08.493421,-69
2021-08-09 20:29:08.493421,-59
2021-08-09 20:29:08.493421,-59
2021-08-09 20:29:08.493421,-57
2021-08-09 20:29:08.493421,-49
2021-08-09 20:29:08.493421,-40
2021-08-09 20:29:08.493421,26
2021-08-09 20:29:08.493421,318
2021-08-09 20:29:08.493421,968
2021-08-09 20:29:08.493421,1518
2021-08-09 20:29:08.493421,883
2021-08-09 20:29:08.493421,-409
2021-08-09 20:29:08.493421,-545
2021-08-09 20:29:08.493421,-28
2021-08-09 20:29:08.493421,-133
2021-08-09 20:29:08.493421,-292
2021-08-09 20:29:08.493421,-128
2021-08-09 20:29:08.493421,-95
2021-08-09 20:29:08.493421,-159
2021-08-09 20:29:08.493421,-116
2021-08-09 20:29:08.493421,-80
2021-08-09 20:29:08.493421,-88
2021-08-09 20:29:08.493421,-69
2021-08-09 20:29:08.493421,-47
2021-08-09 20:29:08.493421,-35
2021-08-09 20:29:08.493421,-21
2021-08-09 20:29:08.493421,-11
2021-08-09 20:29:08.493421,-7
2021-08-09 20:29:08.493421,9
2021-08-09 20:29:08.493421,23
2021-08-09 20:29:08.493421,26
2021-08-09 20:29:08.493421,40
2021-08-09 20:29:08.493421,64
2021-08-09 20:29:08.493421,71
2021-08-09 20:29:08.493421,69
2021-08-09 20:29:08.493421,69
2021-08-09 20:29:08.493421,66
2021-08-09 20:29:08.493421,61
2021-08-09 20:29:08.493421,42
2021-08-09 20:29:08.493421,14
2021-08-09 20:29:09.078098,0
2021-08-09 20:29:09.078098,-9
2021-08-09 20:29:09.078098,-23
2021-08-09 20:29:09.078098,-33
2021-08-09 20:29:09.078098,-47
2021-08-09 20:29:09.078098,-69
2021-08-09 20:29:09.078098,-80
2021-08-09 20:29:09.078098,-85
2021-08-09 20:29:09.078098,-97
2021-08-09 20:29:09.078098,-104
2021-08-09 20:29:09.078098,-95
2021-08-09 20:29:09.078098,-83
2021-08-09 20:29:09.078098,-83
2021-08-09 20:29:09.078098,-85
2021-08-09 20:29:09.078098,-78
2021-08-09 20:29:09.078098,-57
2021-08-09 20:29:09.078098,-42
2021-08-09 20:29:09.078098,-45
2021-08-09 20:29:09.078098,-38
2021-08-09 20:29:09.078098,-38
2021-08-09 20:29:09.078098,-52
2021-08-09 20:29:09.078098,-54
2021-08-09 20:29:09.078098,-45
2021-08-09 20:29:09.078098,-45
2021-08-09 20:29:09.078098,-54
2021-08-09 20:29:09.078098,-59
2021-08-09 20:29:09.078098,-49
2021-08-09 20:29:09.078098,-47
2021-08-09 20:29:09.078098,-57
2021-08-09 20:29:09.078098,-47
2021-08-09 20:29:09.078098,-35
2021-08-09 20:29:09.078098,-42
2021-08-09 20:29:09.078098,-49
2021-08-09 20:29:09.078098,-40
2021-08-09 20:29:09.078098,-33
2021-08-09 20:29:09.078098,-40
2021-08-09 20:29:09.078098,-35
2021-08-09 20:29:09.078098,-19
2021-08-09 20:29:09.078098,-9
2021-08-09 20:29:09.078098,-2
2021-08-09 20:29:09.078098,11
2021-08-09 20:29:09.078098,14
2021-08-09 20:29:09.078098,-16
2021-08-09 20:29:09.078098,-49
2021-08-09 20:29:09.078098,-49
2021-08-09 20:29:09.078098,-40
2021-08-09 20:29:09.078098,-40
2021-08-09 20:29:09.078098,-30
2021-08-09 20:29:09.078098,0
2021-08-09 20:29:09.078098,142
2021-08-09 20:29:09.078098,602
2021-08-09 20:29:09.078098,1380
2021-08-09 20:29:09.078098,1561
2021-08-09 20:29:09.078098,385
2021-08-09 20:29:09.078098,-616
2021-08-09 20:29:09.078098,-285
2021-08-09 20:29:09.078098,9
2021-08-09 20:29:09.078098,-240
2021-08-09 20:29:09.078098,-230
2021-08-09 20:29:09.078098,-90
2021-08-09 20:29:09.078098,-142
2021-08-09 20:29:09.078098,-164
2021-08-09 20:29:09.078098,-90
2021-08-09 20:29:09.078098,-76
2021-08-09 20:29:09.078098,-88
2021-08-09 20:29:09.078098,-61
2021-08-09 20:29:09.078098,-35
2021-08-09 20:29:09.078098,-28
2021-08-09 20:29:09.078098,-16
2021-08-09 20:29:09.078098,-7
2021-08-09 20:29:09.078098,2
2021-08-09 20:29:09.078098,21
2021-08-09 20:29:09.078098,42
2021-08-09 20:29:09.565537,52
2021-08-09 20:29:09.565537,61
2021-08-09 20:29:09.565537,80
2021-08-09 20:29:09.565537,95
2021-08-09 20:29:09.565537,99
2021-08-09 20:29:09.565537,88
2021-08-09 20:29:09.565537,76
2021-08-09 20:29:09.565537,80
2021-08-09 20:29:09.565537,73
2021-08-09 20:29:09.565537,40
2021-08-09 20:29:09.565537,19
2021-08-09 20:29:09.565537,4
2021-08-09 20:29:09.565537,-28
2021-08-09 20:29:09.565537,-54
2021-08-09 20:29:09.565537,-59
2021-08-09 20:29:09.565537,-71
2021-08-09 20:29:09.565537,-102
2021-08-09 20:29:09.565537,-123
2021-08-09 20:29:09.565537,-121
2021-08-09 20:29:09.565537,-126
2021-08-09 20:29:09.565537,-126
2021-08-09 20:29:09.565537,-107
2021-08-09 20:29:09.565537,-97
2021-08-09 20:29:09.565537,-95
2021-08-09 20:29:09.565537,-80
2021-08-09 20:29:09.565537,-59
2021-08-09 20:29:09.565537,-42
2021-08-09 20:29:09.565537,-30
2021-08-09 20:29:09.565537,-28
2021-08-09 20:29:09.565537,-33
2021-08-09 20:29:09.565537,-30
2021-08-09 20:29:09.565537,-21
2021-08-09 20:29:09.565537,-23
2021-08-09 20:29:09.565537,-28
2021-08-09 20:29:09.565537,-28
2021-08-09 20:29:09.565537,-30
2021-08-09 20:29:09.565537,-28
2021-08-09 20:29:09.565537,-23
2021-08-09 20:29:09.565537,-26
2021-08-09 20:29:09.565537,-26
2021-08-09 20:29:09.565537,-21
2021-08-09 20:29:09.565537,-19
2021-08-09 20:29:09.565537,-23
2021-08-09 20:29:09.565537,-23
2021-08-09 20:29:09.565537,-21
2021-08-09 20:29:09.565537,-21
2021-08-09 20:29:09.565537,-19
2021-08-09 20:29:09.565537,-19
2021-08-09 20:29:09.565537,-11
2021-08-09 20:29:09.565537,9
2021-08-09 20:29:09.565537,21
2021-08-09 20:29:09.565537,21
2021-08-09 20:29:09.565537,23
2021-08-09 20:29:09.565537,11
2021-08-09 20:29:09.565537,-4
2021-08-09 20:29:09.565537,-11
2021-08-09 20:29:09.565537,-19
2021-08-09 20:29:09.565537,-16
2021-08-09 20:29:09.565537,-7
2021-08-09 20:29:09.565537,-7
2021-08-09 20:29:09.565537,21
2021-08-09 20:29:09.565537,226
2021-08-09 20:29:09.565537,833
2021-08-09 20:29:09.565537,1623
2021-08-09 20:29:09.565537,1447
2021-08-09 20:29:09.565537,80
2021-08-09 20:29:09.565537,-595
2021-08-09 20:29:09.565537,-126
2021-08-09 20:29:09.565537,-14
2021-08-09 20:29:09.565537,-254
2021-08-09 20:29:09.565537,-164
2021-08-09 20:29:09.565537,-71
2021-08-09 20:29:09.565537,-138
2021-08-09 20:29:10.151288,-119
2021-08-09 20:29:10.151288,-64
2021-08-09 20:29:10.151288,-64
2021-08-09 20:29:10.151288,-52
2021-08-09 20:29:10.151288,-28
2021-08-09 20:29:10.151288,-23
2021-08-09 20:29:10.151288,-30
2021-08-09 20:29:10.151288,-21
2021-08-09 20:29:10.151288,0
2021-08-09 20:29:10.151288,19
2021-08-09 20:29:10.151288,33
2021-08-09 20:29:10.151288,40
2021-08-09 20:29:10.151288,57
2021-08-09 20:29:10.151288,78
2021-08-09 20:29:10.151288,88
2021-08-09 20:29:10.151288,92
2021-08-09 20:29:10.151288,97
2021-08-09 20:29:10.151288,95
2021-08-09 20:29:10.151288,90
2021-08-09 20:29:10.151288,80
2021-08-09 20:29:10.151288,73
2021-08-09 20:29:10.151288,64
2021-08-09 20:29:10.151288,45
2021-08-09 20:29:10.151288,26
2021-08-09 20:29:10.151288,11
2021-08-09 20:29:10.151288,-11
2021-08-09 20:29:10.151288,-33
2021-08-09 20:29:10.151288,-47
2021-08-09 20:29:10.151288,-49
2021-08-09 20:29:10.151288,-61
2021-08-09 20:29:10.151288,-73
2021-08-09 20:29:10.151288,-69
2021-08-09 20:29:10.151288,-66
2021-08-09 20:29:10.151288,-61
2021-08-09 20:29:10.151288,-47
2021-08-09 20:29:10.151288,-33
2021-08-09 20:29:10.151288,-21
2021-08-09 20:29:10.151288,-19
2021-08-09 20:29:10.151288,-21
2021-08-09 20:29:10.151288,-4
2021-08-09 20:29:10.151288,7
2021-08-09 20:29:10.151288,7
2021-08-09 20:29:10.151288,9
2021-08-09 20:29:10.151288,11
2021-08-09 20:29:10.151288,14
2021-08-09 20:29:10.151288,11
2021-08-09 20:29:10.151288,2
2021-08-09 20:29:10.151288,4
2021-08-09 20:29:10.151288,14
2021-08-09 20:29:10.151288,21
2021-08-09 20:29:10.151288,16
2021-08-09 20:29:10.151288,11
2021-08-09 20:29:10.151288,19
2021-08-09 20:29:10.151288,16
2021-08-09 20:29:10.151288,11
2021-08-09 20:29:10.151288,19
2021-08-09 20:29:10.151288,28
2021-08-09 20:29:10.151288,30
2021-08-09 20:29:10.151288,28
2021-08-09 20:29:10.151288,28
2021-08-09 20:29:10.151288,40
2021-08-09 20:29:10.151288,66
2021-08-09 20:29:10.151288,88
2021-08-09 20:29:10.151288,80
2021-08-09 20:29:10.151288,54
2021-08-09 20:29:10.151288,40
2021-08-09 20:29:10.151288,35
2021-08-09 20:29:10.151288,28
2021-08-09 20:29:10.151288,26
2021-08-09 20:29:10.151288,30
2021-08-09 20:29:10.151288,33
2021-08-09 20:29:10.151288,26
2021-08-09 20:29:10.151288,28
2021-08-09 20:29:10.687636,159
2021-08-09 20:29:10.687636,614
2021-08-09 20:29:10.687636,1406
2021-08-09 20:29:10.687636,1659
2021-08-09 20:29:10.687636,537
2021-08-09 20:29:10.687636,-549
2021-08-09 20:29:10.687636,-283
2021-08-09 20:29:10.687636,66
2021-08-09 20:29:10.687636,-169
2021-08-09 20:29:10.687636,-202
2021-08-09 20:29:10.687636,-69
2021-08-09 20:29:10.687636,-102
2021-08-09 20:29:10.687636,-109
2021-08-09 20:29:10.687636,-47
2021-08-09 20:29:10.687636,-38
2021-08-09 20:29:10.687636,-45
2021-08-09 20:29:10.687636,-21
2021-08-09 20:29:10.687636,4
2021-08-09 20:29:10.687636,19
2021-08-09 20:29:10.687636,21
2021-08-09 20:29:10.687636,35
2021-08-09 20:29:10.687636,54
2021-08-09 20:29:10.687636,59
2021-08-09 20:29:10.687636,69
2021-08-09 20:29:10.687636,88
2021-08-09 20:29:10.687636,97
2021-08-09 20:29:10.687636,111
2021-08-09 20:29:10.687636,119
2021-08-09 20:29:10.687636,109
2021-08-09 20:29:10.687636,104
2021-08-09 20:29:10.687636,109
2021-08-09 20:29:10.687636,102
2021-08-09 20:29:10.687636,76
2021-08-09 20:29:10.687636,57
2021-08-09 20:29:10.687636,47
2021-08-09 20:29:10.687636,33
2021-08-09 20:29:10.687636,14
2021-08-09 20:29:10.687636,-4
2021-08-09 20:29:10.687636,-16
2021-08-09 20:29:10.687636,-30
2021-08-09 20:29:10.687636,-52
2021-08-09 20:29:10.687636,-69
2021-08-09 20:29:10.687636,-66
2021-08-09 20:29:10.687636,-64
2021-08-09 20:29:10.687636,-69
2021-08-09 20:29:10.687636,-69
2021-08-09 20:29:10.687636,-61
2021-08-09 20:29:10.687636,-52
2021-08-09 20:29:10.687636,-42
2021-08-09 20:29:10.687636,-26
2021-08-09 20:29:10.687636,-19
2021-08-09 20:29:10.687636,-16
2021-08-09 20:29:10.687636,-9
2021-08-09 20:29:10.687636,-11
2021-08-09 20:29:10.687636,-11
2021-08-09 20:29:10.687636,-9
2021-08-09 20:29:10.687636,-19
2021-08-09 20:29:10.687636,-23
2021-08-09 20:29:10.687636,-19
2021-08-09 20:29:10.687636,-19
2021-08-09 20:29:10.687636,-21
2021-08-09 20:29:10.687636,-21
2021-08-09 20:29:10.687636,-23
2021-08-09 20:29:10.687636,-30
2021-08-09 20:29:10.687636,-38
2021-08-09 20:29:10.687636,-35
2021-08-09 20:29:10.687636,-30
2021-08-09 20:29:10.687636,-30
2021-08-09 20:29:10.687636,-28
2021-08-09 20:29:10.687636,-30
2021-08-09 20:29:10.687636,-35
2021-08-09 20:29:10.687636,-21
2021-08-09 20:29:10.687636,-2
2021-08-09 20:29:11.272062,-2
2021-08-09 20:29:11.272062,-2
2021-08-09 20:29:11.272062,0
2021-08-09 20:29:11.272062,-14
2021-08-09 20:29:11.272062,-30
2021-08-09 20:29:11.272062,-38
2021-08-09 20:29:11.272062,-49
2021-08-09 20:29:11.272062,-49
2021-08-09 20:29:11.272062,-42
2021-08-09 20:29:11.272062,-47
2021-08-09 20:29:11.272062,-11
2021-08-09 20:29:11.272062,211
2021-08-09 20:29:11.272062,797
2021-08-09 20:29:11.272062,1528
2021-08-09 20:29:11.272062,1285
2021-08-09 20:29:11.272062,-95
2021-08-09 20:29:11.272062,-690
2021-08-09 20:29:11.272062,-140
2021-08-09 20:29:11.272062,-42
2021-08-09 20:29:11.272062,-302
2021-08-09 20:29:11.272062,-188
2021-08-09 20:29:11.272062,-88
2021-08-09 20:29:11.272062,-161
2021-08-09 20:29:11.272062,-135
2021-08-09 20:29:11.272062,-76
2021-08-09 20:29:11.272062,-90
2021-08-09 20:29:11.272062,-80
2021-08-09 20:29:11.272062,-45
2021-08-09 20:29:11.272062,-33
2021-08-09 20:29:11.272062,-23
2021-08-09 20:29:11.272062,-2
2021-08-09 20:29:11.272062,14
2021-08-09 20:29:11.272062,23
2021-08-09 20:29:11.272062,40
2021-08-09 20:29:11.272062,59
2021-08-09 20:29:11.272062,69
2021-08-09 20:29:11.272062,80
2021-08-09 20:29:11.272062,92
2021-08-09 20:29:11.272062,97
2021-08-09 20:29:11.272062,99
2021-08-09 20:29:11.272062,97
2021-08-09 20:29:11.272062,90
2021-08-09 20:29:11.272062,78
2021-08-09 20:29:11.272062,69
2021-08-09 20:29:11.272062,52
2021-08-09 20:29:11.272062,28
2021-08-09 20:29:11.272062,9
2021-08-09 20:29:11.272062,-9
2021-08-09 20:29:11.272062,-26
2021-08-09 20:29:11.272062,-38
2021-08-09 20:29:11.272062,-52
2021-08-09 20:29:11.272062,-66
2021-08-09 20:29:11.272062,-66
2021-08-09 20:29:11.272062,-69
2021-08-09 20:29:11.272062,-71
2021-08-09 20:29:11.272062,-61
2021-08-09 20:29:11.272062,-59
2021-08-09 20:29:11.272062,-59
2021-08-09 20:29:11.272062,-42
2021-08-09 20:29:11.272062,-23
2021-08-09 20:29:11.272062,-16
2021-08-09 20:29:11.272062,-14
2021-08-09 20:29:11.272062,-7
2021-08-09 20:29:11.272062,-2
2021-08-09 20:29:11.272062,2
2021-08-09 20:29:11.272062,9
2021-08-09 20:29:11.272062,2
2021-08-09 20:29:11.272062,-2
2021-08-09 20:29:11.272062,4
2021-08-09 20:29:11.272062,2
2021-08-09 20:29:11.272062,-4
2021-08-09 20:29:11.272062,9
2021-08-09 20:29:11.272062,21
2021-08-09 20:29:11.856653,4
2021-08-09 20:29:11.856653,-7
2021-08-09 20:29:11.856653,9
2021-08-09 20:29:11.856653,19
2021-08-09 20:29:11.856653,9
2021-08-09 20:29:11.856653,4
2021-08-09 20:29:11.856653,14
2021-08-09 20:29:11.856653,28
2021-08-09 20:29:11.856653,33
2021-08-09 20:29:11.856653,26
2021-08-09 20:29:11.856653,23
2021-08-09 20:29:11.856653,26
2021-08-09 20:29:11.856653,16
2021-08-09 20:29:11.856653,-2
2021-08-09 20:29:11.856653,-9
2021-08-09 20:29:11.856653,-4
2021-08-09 20:29:11.856653,-2
2021-08-09 20:29:11.856653,4
2021-08-09 20:29:11.856653,14
2021-08-09 20:29:11.856653,57
2021-08-09 20:29:11.856653,302
2021-08-09 20:29:11.856653,971
2021-08-09 20:29:11.856653,1704
2021-08-09 20:29:11.856653,1275
2021-08-09 20:29:11.856653,-154
2021-08-09 20:29:11.856653,-580
2021-08-09 20:29:11.856653,-42
2021-08-09 20:29:11.856653,-49
2021-08-09 20:29:11.856653,-276
2021-08-09 20:29:11.856653,-138
2021-08-09 20:29:11.856653,-69
2021-08-09 20:29:11.856653,-135
2021-08-09 20:29:11.856653,-97
2021-08-09 20:29:11.856653,-47
2021-08-09 20:29:11.856653,-57
2021-08-09 20:29:11.856653,-42
2021-08-09 20:29:11.856653,-9
2021-08-09 20:29:11.856653,-7
2021-08-09 20:29:11.856653,-7
2021-08-09 20:29:11.856653,14
2021-08-09 20:29:11.856653,33
2021-08-09 20:29:11.856653,42
2021-08-09 20:29:11.856653,54
2021-08-09 20:29:11.856653,71
2021-08-09 20:29:11.856653,88
2021-08-09 20:29:11.856653,99
2021-08-09 20:29:11.856653,111
2021-08-09 20:29:11.856653,114
2021-08-09 20:29:11.856653,111
2021-08-09 20:29:11.856653,104
2021-08-09 20:29:11.856653,92
2021-08-09 20:29:11.856653,83
2021-08-09 20:29:11.856653,73
2021-08-09 20:29:11.856653,59
2021-08-09 20:29:11.856653,40
2021-08-09 20:29:11.856653,19
2021-08-09 20:29:11.856653,-9
2021-08-09 20:29:11.856653,-35
2021-08-09 20:29:11.856653,-42
2021-08-09 20:29:11.856653,-49
2021-08-09 20:29:11.856653,-69
2021-08-09 20:29:11.856653,-80
2021-08-09 20:29:11.856653,-83
2021-08-09 20:29:11.856653,-80
2021-08-09 20:29:11.856653,-73
2021-08-09 20:29:11.856653,-61
2021-08-09 20:29:11.856653,-57
2021-08-09 20:29:11.856653,-49
2021-08-09 20:29:11.856653,-38
2021-08-09 20:29:11.856653,-28
2021-08-09 20:29:11.856653,-23
2021-08-09 20:29:11.856653,-16
2021-08-09 20:29:11.856653,-11
2021-08-09 20:29:12.393377,-9
2021-08-09 20:29:12.393377,-11
2021-08-09 20:29:12.393377,-4
2021-08-09 20:29:12.393377,-4
2021-08-09 20:29:12.393377,-14
2021-08-09 20:29:12.393377,-16
2021-08-09 20:29:12.393377,-14
2021-08-09 20:29:12.393377,-16
2021-08-09 20:29:12.393377,-16
2021-08-09 20:29:12.393377,-14
2021-08-09 20:29:12.393377,-9
2021-08-09 20:29:12.393377,-9
2021-08-09 20:29:12.393377,-16
2021-08-09 20:29:12.393377,-30
2021-08-09 20:29:12.393377,-38
2021-08-09 20:29:12.393377,-28
2021-08-09 20:29:12.393377,-21
2021-08-09 20:29:12.393377,-21
2021-08-09 20:29:12.393377,-23
2021-08-09 20:29:12.393377,-14
2021-08-09 20:29:12.393377,14
2021-08-09 20:29:12.393377,19
2021-08-09 20:29:12.393377,11
2021-08-09 20:29:12.393377,16
2021-08-09 20:29:12.393377,2
2021-08-09 20:29:12.393377,-28
2021-08-09 20:29:12.393377,-38
2021-08-09 20:29:12.393377,-28
2021-08-09 20:29:12.393377,-21
2021-08-09 20:29:12.393377,-21
2021-08-09 20:29:12.393377,-26
2021-08-09 20:29:12.393377,-4
2021-08-09 20:29:12.393377,169
2021-08-09 20:29:12.393377,745
2021-08-09 20:29:12.393377,1563
2021-08-09 20:29:12.393377,1490
2021-08-09 20:29:12.393377,161
2021-08-09 20:29:12.393377,-621
2021-08-09 20:29:12.393377,-197
2021-08-09 20:29:12.393377,-42
2021-08-09 20:29:12.393377,-304
2021-08-09 20:29:12.393377,-242
2021-08-09 20:29:12.393377,-133
2021-08-09 20:29:12.393377,-190
2021-08-09 20:29:12.393377,-180
2021-08-09 20:29:12.393377,-128
2021-08-09 20:29:12.393377,-128
2021-08-09 20:29:12.393377,-119
2021-08-09 20:29:12.393377,-95
2021-08-09 20:29:12.393377,-88
2021-08-09 20:29:12.393377,-83
2021-08-09 20:29:12.393377,-64
2021-08-09 20:29:12.393377,-40
2021-08-09 20:29:12.393377,-28
2021-08-09 20:29:12.393377,-16
2021-08-09 20:29:12.393377,2
2021-08-09 20:29:12.393377,19
2021-08-09 20:29:12.393377,26
2021-08-09 20:29:12.393377,30
2021-08-09 20:29:12.393377,45
2021-08-09 20:29:12.393377,49
2021-08-09 20:29:12.393377,35
2021-08-09 20:29:12.393377,35
2021-08-09 20:29:12.393377,35
2021-08-09 20:29:12.393377,19
2021-08-09 20:29:12.393377,4
2021-08-09 20:29:12.393377,-9
2021-08-09 20:29:12.393377,-26
2021-08-09 20:29:12.393377,-47
2021-08-09 20:29:12.393377,-64
2021-08-09 20:29:12.393377,-73
2021-08-09 20:29:12.393377,-85
2021-08-09 20:29:12.393377,-102
2021-08-09 20:29:12.929591,-121
2021-08-09 20:29:12.929591,-123
2021-08-09 20:29:12.929591,-114
2021-08-09 20:29:12.929591,-119
2021-08-09 20:29:12.929591,-119
2021-08-09 20:29:12.929591,-104
2021-08-09 20:29:12.929591,-97
2021-08-09 20:29:12.929591,-92
2021-08-09 20:29:12.929591,-85
2021-08-09 20:29:12.929591,-80
2021-08-09 20:29:12.929591,-76
2021-08-09 20:29:12.929591,-76
2021-08-09 20:29:12.929591,-69
2021-08-09 20:29:12.929591,-64
2021-08-09 20:29:12.929591,-64
2021-08-09 20:29:12.929591,-54
2021-08-09 20:29:12.929591,-57
2021-08-09 20:29:12.929591,-66
2021-08-09 20:29:12.929591,-66
2021-08-09 20:29:12.929591,-64
2021-08-09 20:29:12.929591,-64
2021-08-09 20:29:12.929591,-69
2021-08-09 20:29:12.929591,-71
2021-08-09 20:29:12.929591,-64
2021-08-09 20:29:12.929591,-59
2021-08-09 20:29:12.929591,-52
2021-08-09 20:29:12.929591,-49
2021-08-09 20:29:12.929591,-54
2021-08-09 20:29:12.929591,-57
2021-08-09 20:29:12.929591,-54
2021-08-09 20:29:12.929591,-45
2021-08-09 20:29:12.929591,-42
2021-08-09 20:29:12.929591,-47
2021-08-09 20:29:12.929591,-47
2021-08-09 20:29:12.929591,-40
2021-08-09 20:29:12.929591,-33
2021-08-09 20:29:12.929591,-21
2021-08-09 20:29:12.929591,-14
2021-08-09 20:29:12.929591,-14
2021-08-09 20:29:12.929591,-30
2021-08-09 20:29:12.929591,-54
2021-08-09 20:29:12.929591,-59
2021-08-09 20:29:12.929591,-54
2021-08-09 20:29:12.929591,-47
2021-08-09 20:29:12.929591,-45
2021-08-09 20:29:12.929591,-42
2021-08-09 20:29:12.929591,19
2021-08-09 20:29:12.929591,302
2021-08-09 20:29:12.929591,987
2021-08-09 20:29:12.929591,1647
2021-08-09 20:29:12.929591,1106
2021-08-09 20:29:12.929591,-259
2021-08-09 20:29:12.929591,-552
2021-08-09 20:29:12.929591,-61
2021-08-09 20:29:12.929591,-128
2021-08-09 20:29:12.929591,-309
2021-08-09 20:29:12.929591,-161
2021-08-09 20:29:12.929591,-119
2021-08-09 20:29:12.929591,-185
2021-08-09 20:29:12.929591,-138
2021-08-09 20:29:12.929591,-95
2021-08-09 20:29:12.929591,-109
2021-08-09 20:29:12.929591,-90
2021-08-09 20:29:12.929591,-64
2021-08-09 20:29:12.929591,-57
2021-08-09 20:29:12.929591,-45
2021-08-09 20:29:12.929591,-30
2021-08-09 20:29:12.929591,-16
2021-08-09 20:29:12.929591,0
2021-08-09 20:29:12.929591,16
2021-08-09 20:29:12.929591,33
2021-08-09 20:29:12.929591,47
2021-08-09 20:29:12.929591,57
2021-08-09 20:29:13.515225,61
2021-08-09 20:29:13.515225,69
2021-08-09 20:29:13.515225,80
2021-08-09 20:29:13.515225,66
2021-08-09 20:29:13.515225,52
2021-08-09 20:29:13.515225,47
2021-08-09 20:29:13.515225,23
2021-08-09 20:29:13.515225,4
2021-08-09 20:29:13.515225,2
2021-08-09 20:29:13.515225,-9
2021-08-09 20:29:13.515225,-35
2021-08-09 20:29:13.515225,-61
2021-08-09 20:29:13.515225,-71
2021-08-09 20:29:13.515225,-78
2021-08-09 20:29:13.515225,-88
2021-08-09 20:29:13.515225,-92
2021-08-09 20:29:13.515225,-99
2021-08-09 20:29:13.515225,-97
2021-08-09 20:29:13.515225,-92
2021-08-09 20:29:13.515225,-90
2021-08-09 20:29:13.515225,-76
2021-08-09 20:29:13.515225,-64
2021-08-09 20:29:13.515225,-61
2021-08-09 20:29:13.515225,-49
2021-08-09 20:29:13.515225,-42
2021-08-09 20:29:13.515225,-40
2021-08-09 20:29:13.515225,-40
2021-08-09 20:29:13.515225,-38
2021-08-09 20:29:13.515225,-30
2021-08-09 20:29:13.515225,-30
2021-08-09 20:29:13.515225,-35
2021-08-09 20:29:13.515225,-38
2021-08-09 20:29:13.515225,-42
2021-08-09 20:29:13.515225,-40
2021-08-09 20:29:13.515225,-35
2021-08-09 20:29:13.515225,-33
2021-08-09 20:29:13.515225,-30
2021-08-09 20:29:13.515225,-30
2021-08-09 20:29:13.515225,-28
2021-08-09 20:29:13.515225,-26
2021-08-09 20:29:13.515225,-26
2021-08-09 20:29:13.515225,-26
2021-08-09 20:29:13.515225,-28
2021-08-09 20:29:13.515225,-30
2021-08-09 20:29:13.515225,-26
2021-08-09 20:29:13.515225,-23
2021-08-09 20:29:13.515225,-23
2021-08-09 20:29:13.515225,-33
2021-08-09 20:29:13.515225,-23
2021-08-09 20:29:13.515225,4
2021-08-09 20:29:13.515225,11
2021-08-09 20:29:13.515225,11
2021-08-09 20:29:13.515225,14
2021-08-09 20:29:13.515225,0
2021-08-09 20:29:13.515225,-14
2021-08-09 20:29:13.515225,-23
2021-08-09 20:29:13.515225,-28
2021-08-09 20:29:13.515225,-21
2021-08-09 20:29:13.515225,-14
2021-08-09 20:29:13.515225,-11
2021-08-09 20:29:13.515225,11
2021-08-09 20:29:13.515225,185
2021-08-09 20:29:13.515225,714
2021-08-09 20:29:13.515225,1475
2021-08-09 20:29:13.515225,1454
2021-08-09 20:29:13.515225,180
2021-08-09 20:29:13.515225,-628
2021-08-09 20:29:13.515225,-180
2021-08-09 20:29:13.515225,21
2021-08-09 20:29:13.515225,-245
2021-08-09 20:29:13.515225,-190
2021-08-09 20:29:13.515225,-66
2021-08-09 20:29:13.515225,-126
2021-08-09 20:29:14.051762,-126
2021-08-09 20:29:14.051762,-64
2021-08-09 20:29:14.051762,-69
2021-08-09 20:29:14.051762,-76
2021-08-09 20:29:14.051762,-45
2021-08-09 20:29:14.051762,-21
2021-08-09 20:29:14.051762,-16
2021-08-09 20:29:14.051762,-2
2021-08-09 20:29:14.051762,9
2021-08-09 20:29:14.051762,9
2021-08-09 20:29:14.051762,14
2021-08-09 20:29:14.051762,30
2021-08-09 20:29:14.051762,49
2021-08-09 20:29:14.051762,64
2021-08-09 20:29:14.051762,71
2021-08-09 20:29:14.051762,73
2021-08-09 20:29:14.051762,71
2021-08-09 20:29:14.051762,78
2021-08-09 20:29:14.051762,69
2021-08-09 20:29:14.051762,38
2021-08-09 20:29:14.051762,26
2021-08-09 20:29:14.051762,21
2021-08-09 20:29:14.051762,2
2021-08-09 20:29:14.051762,-14
2021-08-09 20:29:14.051762,-26
2021-08-09 20:29:14.051762,-38
2021-08-09 20:29:14.051762,-49
2021-08-09 20:29:14.051762,-61
2021-08-09 20:29:14.051762,-76
2021-08-09 20:29:14.051762,-88
2021-08-09 20:29:14.051762,-85
2021-08-09 20:29:14.051762,-80
2021-08-09 20:29:14.051762,-80
2021-08-09 20:29:14.051762,-71
2021-08-09 20:29:14.051762,-64
2021-08-09 20:29:14.051762,-57
2021-08-09 20:29:14.051762,-47
2021-08-09 20:29:14.051762,-40
2021-08-09 20:29:14.051762,-30
2021-08-09 20:29:14.051762,-23
2021-08-09 20:29:14.051762,-23
2021-08-09 20:29:14.051762,-21
2021-08-09 20:29:14.051762,-21
2021-08-09 20:29:14.051762,-21
2021-08-09 20:29:14.051762,-23
2021-08-09 20:29:14.051762,-28
2021-08-09 20:29:14.051762,-23
2021-08-09 20:29:14.051762,-23
2021-08-09 20:29:14.051762,-28
2021-08-09 20:29:14.051762,-23
2021-08-09 20:29:14.051762,-21
2021-08-09 20:29:14.051762,-19
2021-08-09 20:29:14.051762,-21
2021-08-09 20:29:14.051762,-28
2021-08-09 20:29:14.051762,-23
2021-08-09 20:29:14.051762,-19
2021-08-09 20:29:14.051762,-16
2021-08-09 20:29:14.051762,-21
2021-08-09 20:29:14.051762,-23
2021-08-09 20:29:14.051762,-11
2021-08-09 20:29:14.051762,9
2021-08-09 20:29:14.051762,16
2021-08-09 20:29:14.051762,14
2021-08-09 20:29:14.051762,14
2021-08-09 20:29:14.051762,9
2021-08-09 20:29:14.051762,-14
2021-08-09 20:29:14.051762,-33
2021-08-09 20:29:14.051762,-23
2021-08-09 20:29:14.051762,-16
2021-08-09 20:29:14.051762,-19
2021-08-09 20:29:14.051762,-16
2021-08-09 20:29:14.051762,2
2021-08-09 20:29:14.051762,130
2021-08-09 20:29:14.636296,580
2021-08-09 20:29:14.636296,1361
2021-08-09 20:29:14.636296,1590
2021-08-09 20:29:14.636296,461
2021-08-09 20:29:14.636296,-595
2021-08-09 20:29:14.636296,-304
2021-08-09 20:29:14.636296,19
2021-08-09 20:29:14.636296,-235
2021-08-09 20:29:14.636296,-235
2021-08-09 20:29:14.636296,-78
2021-08-09 20:29:14.636296,-128
2021-08-09 20:29:14.636296,-159
2021-08-09 20:29:14.636296,-97
2021-08-09 20:29:14.636296,-85
2021-08-09 20:29:14.636296,-85
2021-08-09 20:29:14.636296,-54
2021-08-09 20:29:14.636296,-42
2021-08-09 20:29:14.636296,-38
2021-08-09 20:29:14.636296,-19
2021-08-09 20:29:14.636296,-4
2021-08-09 20:29:14.636296,9
2021-08-09 20:29:14.636296,21
2021-08-09 20:29:14.636296,40
2021-08-09 20:29:14.636296,61
2021-08-09 20:29:14.636296,66
2021-08-09 20:29:14.636296,66
2021-08-09 20:29:14.636296,73
2021-08-09 20:29:14.636296,83
2021-08-09 20:29:14.636296,88
2021-08-09 20:29:14.636296,78
2021-08-09 20:29:14.636296,69
2021-08-09 20:29:14.636296,54
2021-08-09 20:29:14.636296,38
2021-08-09 20:29:14.636296,23
2021-08-09 20:29:14.636296,9
2021-08-09 20:29:14.636296,-7
2021-08-09 20:29:14.636296,-23
2021-08-09 20:29:14.636296,-40
2021-08-09 20:29:14.636296,-52
2021-08-09 20:29:14.636296,-66
2021-08-09 20:29:14.636296,-76
2021-08-09 20:29:14.636296,-71
2021-08-09 20:29:14.636296,-73
2021-08-09 20:29:14.636296,-76
2021-08-09 20:29:14.636296,-73
2021-08-09 20:29:14.636296,-64
2021-08-09 20:29:14.636296,-45
2021-08-09 20:29:14.636296,-35
2021-08-09 20:29:14.636296,-26
2021-08-09 20:29:14.636296,-14
2021-08-09 20:29:14.636296,-11
2021-08-09 20:29:14.636296,-9
2021-08-09 20:29:14.636296,-4
2021-08-09 20:29:14.636296,0
2021-08-09 20:29:14.636296,0
2021-08-09 20:29:14.636296,-2
2021-08-09 20:29:14.636296,-7
2021-08-09 20:29:14.636296,-11
2021-08-09 20:29:14.636296,-16
2021-08-09 20:29:14.636296,-7
2021-08-09 20:29:14.636296,-4
2021-08-09 20:29:14.636296,-9
2021-08-09 20:29:14.636296,-11
2021-08-09 20:29:14.636296,-14
2021-08-09 20:29:14.636296,-14
2021-08-09 20:29:14.636296,-7
2021-08-09 20:29:14.636296,-2
2021-08-09 20:29:14.636296,0
2021-08-09 20:29:14.636296,-2
2021-08-09 20:29:14.636296,-4
2021-08-09 20:29:14.636296,-9
2021-08-09 20:29:14.636296,-14
2021-08-09 20:29:14.636296,4
2021-08-09 20:29:15.220763,26
2021-08-09 20:29:15.220763,35
2021-08-09 20:29:15.220763,38
2021-08-09 20:29:15.220763,30
2021-08-09 20:29:15.220763,14
2021-08-09 20:29:15.220763,-16
2021-08-09 20:29:15.220763,-38
2021-08-09 20:29:15.220763,-23
2021-08-09 20:29:15.220763,-19
2021-08-09 20:29:15.220763,-30
2021-08-09 20:29:15.220763,-33
2021-08-09 20:29:15.220763,-2
2021-08-09 20:29:15.220763,178
2021-08-09 20:29:15.220763,745
2021-08-09 20:29:15.220763,1571
2021-08-09 20:29:15.220763,1573
2021-08-09 20:29:15.220763,273
2021-08-09 20:29:15.220763,-578
2021-08-09 20:29:15.220763,-192
2021-08-09 20:29:15.220763,-4
2021-08-09 20:29:15.220763,-257
2021-08-09 20:29:15.220763,-211
2021-08-09 20:29:15.220763,-90
2021-08-09 20:29:15.220763,-140
2021-08-09 20:29:15.220763,-138
2021-08-09 20:29:15.220763,-78
2021-08-09 20:29:15.220763,-76
2021-08-09 20:29:15.220763,-76
2021-08-09 20:29:15.220763,-49
2021-08-09 20:29:15.220763,-38
2021-08-09 20:29:15.220763,-28
2021-08-09 20:29:15.220763,-11
2021-08-09 20:29:15.220763,2
2021-08-09 20:29:15.220763,16
2021-08-09 20:29:15.220763,28
2021-08-09 20:29:15.220763,40
2021-08-09 20:29:15.220763,54
2021-08-09 20:29:15.220763,64
2021-08-09 20:29:15.220763,78
2021-08-09 20:29:15.220763,78
2021-08-09 20:29:15.220763,73
2021-08-09 20:29:15.220763,76
2021-08-09 20:29:15.220763,73
2021-08-09 20:29:15.220763,61
2021-08-09 20:29:15.220763,49
2021-08-09 20:29:15.220763,42
2021-08-09 20:29:15.220763,38
2021-08-09 20:29:15.220763,7
2021-08-09 20:29:15.220763,-21
2021-08-09 20:29:15.220763,-28
2021-08-09 20:29:15.220763,-40
2021-08-09 20:29:15.220763,-59
2021-08-09 20:29:15.220763,-76
2021-08-09 20:29:15.220763,-83
2021-08-09 20:29:15.220763,-83
2021-08-09 20:29:15.220763,-88
2021-08-09 20:29:15.220763,-88
2021-08-09 20:29:15.220763,-80
2021-08-09 20:29:15.220763,-71
2021-08-09 20:29:15.220763,-66
2021-08-09 20:29:15.220763,-61
2021-08-09 20:29:15.220763,-49
2021-08-09 20:29:15.220763,-42
2021-08-09 20:29:15.220763,-38
2021-08-09 20:29:15.220763,-23
2021-08-09 20:29:15.220763,-21
2021-08-09 20:29:15.220763,-30
2021-08-09 20:29:15.220763,-28
2021-08-09 20:29:15.220763,-26
2021-08-09 20:29:15.220763,-26
2021-08-09 20:29:15.220763,-28
2021-08-09 20:29:15.220763,-35
2021-08-09 20:29:15.220763,-38
2021-08-09 20:29:15.757725,-40
2021-08-09 20:29:15.757725,-40
2021-08-09 20:29:15.757725,-35
2021-08-09 20:29:15.757725,-38
2021-08-09 20:29:15.757725,-33
2021-08-09 20:29:15.757725,-30
2021-08-09 20:29:15.757725,-38
2021-08-09 20:29:15.757725,-40
2021-08-09 20:29:15.757725,-40
2021-08-09 20:29:15.757725,-35
2021-08-09 20:29:15.757725,-30
2021-08-09 20:29:15.757725,-33
2021-08-09 20:29:15.757725,-42
2021-08-09 20:29:15.757725,-57
2021-08-09 20:29:15.757725,-47
2021-08-09 20:29:15.757725,-23
2021-08-09 20:29:15.757725,-14
2021-08-09 20:29:15.757725,-4
2021-08-09 20:29:15.757725,-2
2021-08-09 20:29:15.757725,-16
2021-08-09 20:29:15.757725,-28
2021-08-09 20:29:15.757725,-38
2021-08-09 20:29:15.757725,-38
2021-08-09 20:29:15.757725,-26
2021-08-09 20:29:15.757725,-21
2021-08-09 20:29:15.757725,-16
2021-08-09 20:29:15.757725,-7
2021-08-09 20:29:15.757725,114
2021-08-09 20:29:15.757725,578
2021-08-09 20:29:15.757725,1382
2021-08-09 20:29:15.757725,1649
2021-08-09 20:29:15.757725,547
2021-08-09 20:29:15.757725,-533
2021-08-09 20:29:15.757725,-290
2021-08-09 20:29:15.757725,28
2021-08-09 20:29:15.757725,-214
2021-08-09 20:29:15.757725,-233
2021-08-09 20:29:15.757725,-88
2021-08-09 20:29:15.757725,-123
2021-08-09 20:29:15.757725,-145
2021-08-09 20:29:15.757725,-85
2021-08-09 20:29:15.757725,-76
2021-08-09 20:29:15.757725,-85
2021-08-09 20:29:15.757725,-59
2021-08-09 20:29:15.757725,-38
2021-08-09 20:29:15.757725,-30
2021-08-09 20:29:15.757725,-14
2021-08-09 20:29:15.757725,7
2021-08-09 20:29:15.757725,21
2021-08-09 20:29:15.757725,26
2021-08-09 20:29:15.757725,30
2021-08-09 20:29:15.757725,54
2021-08-09 20:29:15.757725,64
2021-08-09 20:29:15.757725,71
2021-08-09 20:29:15.757725,83
2021-08-09 20:29:15.757725,83
2021-08-09 20:29:15.757725,83
2021-08-09 20:29:15.757725,80
2021-08-09 20:29:15.757725,71
2021-08-09 20:29:15.757725,61
2021-08-09 20:29:15.757725,42
2021-08-09 20:29:15.757725,33
2021-08-09 20:29:15.757725,26
2021-08-09 20:29:15.757725,0
2021-08-09 20:29:15.757725,-23
2021-08-09 20:29:15.757725,-28
2021-08-09 20:29:15.757725,-35
2021-08-09 20:29:15.757725,-52
2021-08-09 20:29:15.757725,-71
2021-08-09 20:29:15.757725,-69
2021-08-09 20:29:15.757725,-69
2021-08-09 20:29:15.757725,-73
2021-08-09 20:29:15.757725,-69
2021-08-09 20:29:16.293818,-66
2021-08-09 20:29:16.293818,-59
2021-08-09 20:29:16.293818,-45
2021-08-09 20:29:16.293818,-38
2021-08-09 20:29:16.293818,-30
2021-08-09 20:29:16.293818,-23
2021-08-09 20:29:16.293818,-19
2021-08-09 20:29:16.293818,-16
2021-08-09 20:29:16.293818,-21
2021-08-09 20:29:16.293818,-33
2021-08-09 20:29:16.293818,-38
2021-08-09 20:29:16.293818,-33
2021-08-09 20:29:16.293818,-28
2021-08-09 20:29:16.293818,-28
2021-08-09 20:29:16.293818,-26
2021-08-09 20:29:16.293818,-23
2021-08-09 20:29:16.293818,-28
2021-08-09 20:29:16.293818,-28
2021-08-09 20:29:16.293818,-28
2021-08-09 20:29:16.293818,-28
2021-08-09 20:29:16.293818,-26
2021-08-09 20:29:16.293818,-26
2021-08-09 20:29:16.293818,-16
2021-08-09 20:29:16.293818,-11
2021-08-09 20:29:16.293818,-23
2021-08-09 20:29:16.293818,-26
2021-08-09 20:29:16.293818,-26
2021-08-09 20:29:16.293818,-21
2021-08-09 20:29:16.293818,-4
2021-08-09 20:29:16.293818,2
2021-08-09 20:29:16.293818,2
2021-08-09 20:29:16.293818,-2
2021-08-09 20:29:16.293818,-16
2021-08-09 20:29:16.293818,-26
2021-08-09 20:29:16.293818,-28
2021-08-09 20:29:16.293818,-26
2021-08-09 20:29:16.293818,-23
2021-08-09 20:29:16.293818,-16
2021-08-09 20:29:16.293818,-9
2021-08-09 20:29:16.293818,19
2021-08-09 20:29:16.293818,207
2021-08-09 20:29:16.293818,749
2021-08-09 20:29:16.293818,1475
2021-08-09 20:29:16.293818,1361
2021-08-09 20:29:16.293818,80
2021-08-09 20:29:16.293818,-614
2021-08-09 20:29:16.293818,-142
2021-08-09 20:29:16.293818,4
2021-08-09 20:29:16.293818,-249
2021-08-09 20:29:16.293818,-169
2021-08-09 20:29:16.293818,-64
2021-08-09 20:29:16.293818,-126
2021-08-09 20:29:16.293818,-111
2021-08-09 20:29:16.293818,-52
2021-08-09 20:29:16.293818,-57
2021-08-09 20:29:16.293818,-66
2021-08-09 20:29:16.293818,-45
2021-08-09 20:29:16.293818,-28
2021-08-09 20:29:16.293818,-14
2021-08-09 20:29:16.293818,-4
2021-08-09 20:29:16.293818,2
2021-08-09 20:29:16.293818,26
2021-08-09 20:29:16.293818,42
2021-08-09 20:29:16.293818,42
2021-08-09 20:29:16.293818,54
2021-08-09 20:29:16.293818,69
2021-08-09 20:29:16.293818,78
2021-08-09 20:29:16.293818,85
2021-08-09 20:29:16.293818,78
2021-08-09 20:29:16.293818,76
2021-08-09 20:29:16.293818,73
2021-08-09 20:29:16.293818,61
2021-08-09 20:29:16.293818,47
2021-08-09 20:29:16.879196,35
2021-08-09 20:29:16.879196,21
2021-08-09 20:29:16.879196,4
2021-08-09 20:29:16.879196,-16
2021-08-09 20:29:16.879196,-26
2021-08-09 20:29:16.879196,-52
2021-08-09 20:29:16.879196,-83
2021-08-09 20:29:16.879196,-85
2021-08-09 20:29:16.879196,-83
2021-08-09 20:29:16.879196,-92
2021-08-09 20:29:16.879196,-88
2021-08-09 20:29:16.879196,-76
2021-08-09 20:29:16.879196,-66
2021-08-09 20:29:16.879196,-59
2021-08-09 20:29:16.879196,-47
2021-08-09 20:29:16.879196,-40
2021-08-09 20:29:16.879196,-38
2021-08-09 20:29:16.879196,-23
2021-08-09 20:29:16.879196,-16
2021-08-09 20:29:16.879196,-16
2021-08-09 20:29:16.879196,-14
2021-08-09 20:29:16.879196,-23
2021-08-09 20:29:16.879196,-26
2021-08-09 20:29:16.879196,-23
2021-08-09 20:29:16.879196,-28
2021-08-09 20:29:16.879196,-28
2021-08-09 20:29:16.879196,-30
2021-08-09 20:29:16.879196,-26
2021-08-09 20:29:16.879196,-19
2021-08-09 20:29:16.879196,-26
2021-08-09 20:29:16.879196,-23
2021-08-09 20:29:16.879196,-14
2021-08-09 20:29:16.879196,-23
2021-08-09 20:29:16.879196,-33
2021-08-09 20:29:16.879196,-35
2021-08-09 20:29:16.879196,-28
2021-08-09 20:29:16.879196,-9
2021-08-09 20:29:16.879196,9
2021-08-09 20:29:16.879196,16
2021-08-09 20:29:16.879196,7
2021-08-09 20:29:16.879196,0
2021-08-09 20:29:16.879196,-9
2021-08-09 20:29:16.879196,-26
2021-08-09 20:29:16.879196,-35
2021-08-09 20:29:16.879196,-33
2021-08-09 20:29:16.879196,-21
2021-08-09 20:29:16.879196,-14
2021-08-09 20:29:16.879196,-19
2021-08-09 20:29:16.879196,26
2021-08-09 20:29:16.879196,280
2021-08-09 20:29:16.879196,906
2021-08-09 20:29:16.879196,1561
2021-08-09 20:29:16.879196,1114
2021-08-09 20:29:16.879196,-240
2021-08-09 20:29:16.879196,-587
2021-08-09 20:29:16.879196,-54
2021-08-09 20:29:16.879196,-73
2021-08-09 20:29:16.879196,-280
2021-08-09 20:29:16.879196,-142
2021-08-09 20:29:16.879196,-85
2021-08-09 20:29:16.879196,-154
2021-08-09 20:29:16.879196,-111
2021-08-09 20:29:16.879196,-64
2021-08-09 20:29:16.879196,-76
2021-08-09 20:29:16.879196,-61
2021-08-09 20:29:16.879196,-35
2021-08-09 20:29:16.879196,-33
2021-08-09 20:29:16.879196,-16
2021-08-09 20:29:16.879196,7
2021-08-09 20:29:16.879196,21
2021-08-09 20:29:16.879196,23
2021-08-09 20:29:16.879196,30
2021-08-09 20:29:16.879196,52
2021-08-09 20:29:17.414888,71
2021-08-09 20:29:17.414888,85
2021-08-09 20:29:17.414888,92
2021-08-09 20:29:17.414888,92
2021-08-09 20:29:17.414888,95
2021-08-09 20:29:17.414888,90
2021-08-09 20:29:17.414888,80
2021-08-09 20:29:17.414888,76
2021-08-09 20:29:17.414888,54
2021-08-09 20:29:17.414888,21
2021-08-09 20:29:17.414888,4
2021-08-09 20:29:17.414888,-9
2021-08-09 20:29:17.414888,-33
2021-08-09 20:29:17.414888,-54
2021-08-09 20:29:17.414888,-66
2021-08-09 20:29:17.414888,-83
2021-08-09 20:29:17.414888,-97
2021-08-09 20:29:17.414888,-95
2021-08-09 20:29:17.414888,-97
2021-08-09 20:29:17.414888,-102
2021-08-09 20:29:17.414888,-88
2021-08-09 20:29:17.414888,-80
2021-08-09 20:29:17.414888,-76
2021-08-09 20:29:17.414888,-59
2021-08-09 20:29:17.414888,-42
2021-08-09 20:29:17.414888,-33
2021-08-09 20:29:17.414888,-23
2021-08-09 20:29:17.414888,-16
2021-08-09 20:29:17.414888,-16
2021-08-09 20:29:17.414888,-16
2021-08-09 20:29:17.414888,-14
2021-08-09 20:29:17.414888,-19
2021-08-09 20:29:17.414888,-14
2021-08-09 20:29:17.414888,-7
2021-08-09 20:29:17.414888,-21
2021-08-09 20:29:17.414888,-30
2021-08-09 20:29:17.414888,-23
2021-08-09 20:29:17.414888,-19
2021-08-09 20:29:17.414888,-19
2021-08-09 20:29:17.414888,-19
2021-08-09 20:29:17.414888,-21
2021-08-09 20:29:17.414888,-26
2021-08-09 20:29:17.414888,-21
2021-08-09 20:29:17.414888,-11
2021-08-09 20:29:17.414888,-28
2021-08-09 20:29:17.414888,-35
2021-08-09 20:29:17.414888,-4
2021-08-09 20:29:17.414888,7
2021-08-09 20:29:17.414888,2
2021-08-09 20:29:17.414888,9
2021-08-09 20:29:17.414888,7
2021-08-09 20:29:17.414888,-9
2021-08-09 20:29:17.414888,-26
2021-08-09 20:29:17.414888,-28
2021-08-09 20:29:17.414888,-26
2021-08-09 20:29:17.414888,-21
2021-08-09 20:29:17.414888,-16
2021-08-09 20:29:17.414888,-16
2021-08-09 20:29:17.414888,85
2021-08-09 20:29:17.414888,507
2021-08-09 20:29:17.414888,1311
2021-08-09 20:29:17.414888,1716
2021-08-09 20:29:17.414888,735
2021-08-09 20:29:17.414888,-476
2021-08-09 20:29:17.414888,-364
2021-08-09 20:29:17.414888,21
2021-08-09 20:29:17.414888,-195
2021-08-09 20:29:17.414888,-266
2021-08-09 20:29:17.414888,-111
2021-08-09 20:29:17.414888,-123
2021-08-09 20:29:17.414888,-157
2021-08-09 20:29:17.414888,-97
2021-08-09 20:29:17.414888,-78
2021-08-09 20:29:17.999922,-90
2021-08-09 20:29:17.999922,-61
2021-08-09 20:29:17.999922,-40
2021-08-09 20:29:17.999922,-42
2021-08-09 20:29:17.999922,-28
2021-08-09 20:29:17.999922,-21
2021-08-09 20:29:17.999922,-23
2021-08-09 20:29:17.999922,0
2021-08-09 20:29:17.999922,21
2021-08-09 20:29:17.999922,30
2021-08-09 20:29:17.999922,47
2021-08-09 20:29:17.999922,66
2021-08-09 20:29:17.999922,78
2021-08-09 20:29:17.999922,80
2021-08-09 20:29:17.999922,80
2021-08-09 20:29:17.999922,80
2021-08-09 20:29:17.999922,73
2021-08-09 20:29:17.999922,66
2021-08-09 20:29:17.999922,47
2021-08-09 20:29:17.999922,30
2021-08-09 20:29:17.999922,16
2021-08-09 20:29:17.999922,-2
2021-08-09 20:29:17.999922,-19
2021-08-09 20:29:17.999922,-35
2021-08-09 20:29:17.999922,-57
2021-08-09 20:29:17.999922,-69
2021-08-09 20:29:17.999922,-80
2021-08-09 20:29:17.999922,-85
2021-08-09 20:29:17.999922,-88
2021-08-09 20:29:17.999922,-90
2021-08-09 20:29:17.999922,-80
2021-08-09 20:29:17.999922,-71
2021-08-09 20:29:17.999922,-71
2021-08-09 20:29:17.999922,-71
2021-08-09 20:29:17.999922,-66
2021-08-09 20:29:17.999922,-52
2021-08-09 20:29:17.999922,-45
2021-08-09 20:29:17.999922,-40
2021-08-09 20:29:17.999922,-28
2021-08-09 20:29:17.999922,-28
2021-08-09 20:29:17.999922,-28
2021-08-09 20:29:17.999922,-26
2021-08-09 20:29:17.999922,-23
2021-08-09 20:29:17.999922,-26
2021-08-09 20:29:17.999922,-28
2021-08-09 20:29:17.999922,-26
2021-08-09 20:29:17.999922,-21
2021-08-09 20:29:17.999922,-30
2021-08-09 20:29:17.999922,-26
2021-08-09 20:29:17.999922,-21
2021-08-09 20:29:17.999922,-23
2021-08-09 20:29:17.999922,-19
2021-08-09 20:29:17.999922,-11
2021-08-09 20:29:17.999922,-14
2021-08-09 20:29:17.999922,-21
2021-08-09 20:29:17.999922,-14
2021-08-09 20:29:17.999922,7
2021-08-09 20:29:17.999922,16
2021-08-09 20:29:17.999922,11
2021-08-09 20:29:17.999922,21
2021-08-09 20:29:17.999922,19
2021-08-09 20:29:17.999922,2
2021-08-09 20:29:17.999922,-9
2021-08-09 20:29:17.999922,-19
2021-08-09 20:29:17.999922,-21
2021-08-09 20:29:17.999922,-16
2021-08-09 20:29:17.999922,-9
2021-08-09 20:29:17.999922,-11
2021-08-09 20:29:17.999922,19
2021-08-09 20:29:17.999922,266
2021-08-09 20:29:17.999922,923
2021-08-09 20:29:17.999922,1644
2021-08-09 20:29:17.999922,1252
2021-08-09 20:29:18.584536,-119
2021-08-09 20:29:18.584536,-549
2021-08-09 20:29:18.584536,-64
2021-08-09 20:29:18.584536,-76
2021-08-09 20:29:18.584536,-276
2021-08-09 20:29:18.584536,-149
2021-08-09 20:29:18.584536,-92
2021-08-09 20:29:18.584536,-157
2021-08-09 20:29:18.584536,-128
2021-08-09 20:29:18.584536,-90
2021-08-09 20:29:18.584536,-104
2021-08-09 20:29:18.584536,-88
2021-08-09 20:29:18.584536,-52
2021-08-09 20:29:18.584536,-42
2021-08-09 20:29:18.584536,-33
2021-08-09 20:29:18.584536,-21
2021-08-09 20:29:18.584536,-9
2021-08-09 20:29:18.584536,14
2021-08-09 20:29:18.584536,23
2021-08-09 20:29:18.584536,38
2021-08-09 20:29:18.584536,61
2021-08-09 20:29:18.584536,73
2021-08-09 20:29:18.584536,78
2021-08-09 20:29:18.584536,83
2021-08-09 20:29:18.584536,88
2021-08-09 20:29:18.584536,83
2021-08-09 20:29:18.584536,61
2021-08-09 20:29:18.584536,49
2021-08-09 20:29:18.584536,42
2021-08-09 20:29:18.584536,28
2021-08-09 20:29:18.584536,16
2021-08-09 20:29:18.584536,-2
2021-08-09 20:29:18.584536,-26
2021-08-09 20:29:18.584536,-42
2021-08-09 20:29:18.584536,-59
2021-08-09 20:29:18.584536,-69
2021-08-09 20:29:18.584536,-80
2021-08-09 20:29:18.584536,-95
2021-08-09 20:29:18.584536,-95
2021-08-09 20:29:18.584536,-88
2021-08-09 20:29:18.584536,-83
2021-08-09 20:29:18.584536,-78
2021-08-09 20:29:18.584536,-71
2021-08-09 20:29:18.584536,-57
2021-08-09 20:29:18.584536,-57
2021-08-09 20:29:18.584536,-52
2021-08-09 20:29:18.584536,-35
2021-08-09 20:29:18.584536,-28
2021-08-09 20:29:18.584536,-23
2021-08-09 20:29:18.584536,-16
2021-08-09 20:29:18.584536,-14
2021-08-09 20:29:18.584536,-19
2021-08-09 20:29:18.584536,-26
2021-08-09 20:29:18.584536,-26
2021-08-09 20:29:18.584536,-21
2021-08-09 20:29:18.584536,-23
2021-08-09 20:29:18.584536,-26
2021-08-09 20:29:18.584536,-23
2021-08-09 20:29:18.584536,-26
2021-08-09 20:29:18.584536,-30
2021-08-09 20:29:18.584536,-33
2021-08-09 20:29:18.584536,-23
2021-08-09 20:29:18.584536,-23
2021-08-09 20:29:18.584536,-28
2021-08-09 20:29:18.584536,-21
2021-08-09 20:29:18.584536,-23
2021-08-09 20:29:18.584536,-21
2021-08-09 20:29:18.584536,0
2021-08-09 20:29:18.584536,14
2021-08-09 20:29:18.584536,16
2021-08-09 20:29:18.584536,16
2021-08-09 20:29:18.584536,11
2021-08-09 20:29:18.584536,-9
2021-08-09 20:29:19.170234,-38
2021-08-09 20:29:19.170234,-38
2021-08-09 20:29:19.170234,-16
2021-08-09 20:29:19.170234,-9
2021-08-09 20:29:19.170234,-11
2021-08-09 20:29:19.170234,-7
2021-08-09 20:29:19.170234,119
2021-08-09 20:29:19.170234,566
2021-08-09 20:29:19.170234,1342
2021-08-09 20:29:19.170234,1568
2021-08-09 20:29:19.170234,449
2021-08-09 20:29:19.170234,-590
2021-08-09 20:29:19.170234,-309
2021-08-09 20:29:19.170234,0
2021-08-09 20:29:19.170234,-242
2021-08-09 20:29:19.170234,-245
2021-08-09 20:29:19.170234,-102
2021-08-09 20:29:19.170234,-142
2021-08-09 20:29:19.170234,-161
2021-08-09 20:29:19.170234,-109
2021-08-09 20:29:19.170234,-111
2021-08-09 20:29:19.170234,-116
2021-08-09 20:29:19.170234,-73
2021-08-09 20:29:19.170234,-54
2021-08-09 20:29:19.170234,-57
2021-08-09 20:29:19.170234,-42
2021-08-09 20:29:19.170234,-16
2021-08-09 20:29:19.170234,7
2021-08-09 20:29:19.170234,19
2021-08-09 20:29:19.170234,23
2021-08-09 20:29:19.170234,38
2021-08-09 20:29:19.170234,47
2021-08-09 20:29:19.170234,59
2021-08-09 20:29:19.170234,73
2021-08-09 20:29:19.170234,80
2021-08-09 20:29:19.170234,85
2021-08-09 20:29:19.170234,76
2021-08-09 20:29:19.170234,59
2021-08-09 20:29:19.170234,49
2021-08-09 20:29:19.170234,35
2021-08-09 20:29:19.170234,21
2021-08-09 20:29:19.170234,2
2021-08-09 20:29:19.170234,-16
2021-08-09 20:29:19.170234,-35
2021-08-09 20:29:19.170234,-54
2021-08-09 20:29:19.170234,-71
2021-08-09 20:29:19.170234,-83
2021-08-09 20:29:19.170234,-95
2021-08-09 20:29:19.170234,-102
2021-08-09 20:29:19.170234,-104
2021-08-09 20:29:19.170234,-99
2021-08-09 20:29:19.170234,-88
2021-08-09 20:29:19.170234,-78
2021-08-09 20:29:19.170234,-66
2021-08-09 20:29:19.170234,-57
2021-08-09 20:29:19.170234,-54
2021-08-09 20:29:19.170234,-47
2021-08-09 20:29:19.170234,-38
2021-08-09 20:29:19.170234,-30
2021-08-09 20:29:19.170234,-23
2021-08-09 20:29:19.170234,-28
2021-08-09 20:29:19.170234,-33
2021-08-09 20:29:19.170234,-35
2021-08-09 20:29:19.170234,-33
2021-08-09 20:29:19.170234,-30
2021-08-09 20:29:19.170234,-33
2021-08-09 20:29:19.170234,-28
2021-08-09 20:29:19.170234,-28
2021-08-09 20:29:19.170234,-33
2021-08-09 20:29:19.170234,-28
2021-08-09 20:29:19.170234,-28
2021-08-09 20:29:19.170234,-30
2021-08-09 20:29:19.170234,-28
2021-08-09 20:29:19.705995,-28
2021-08-09 20:29:19.705995,-33
2021-08-09 20:29:19.705995,-26
2021-08-09 20:29:19.705995,-4
2021-08-09 20:29:19.705995,14
2021-08-09 20:29:19.705995,7
2021-08-09 20:29:19.705995,4
2021-08-09 20:29:19.705995,9
2021-08-09 20:29:19.705995,-9
2021-08-09 20:29:19.705995,-23
2021-08-09 20:29:19.705995,-19
2021-08-09 20:29:19.705995,-16
2021-08-09 20:29:19.705995,-23
2021-08-09 20:29:19.705995,-33
2021-08-09 20:29:19.705995,-28
2021-08-09 20:29:19.705995,40
2021-08-09 20:29:19.705995,378
2021-08-09 20:29:19.705995,1104
2021-08-09 20:29:19.705995,1580
2021-08-09 20:29:19.705995,766
2021-08-09 20:29:19.705995,-487
2021-08-09 20:29:19.705995,-471
2021-08-09 20:29:19.705995,2
2021-08-09 20:29:19.705995,-171
2021-08-09 20:29:19.705995,-278
2021-08-09 20:29:19.705995,-107
2021-08-09 20:29:19.705995,-119
2021-08-09 20:29:19.705995,-173
2021-08-09 20:29:19.705995,-102
2021-08-09 20:29:19.705995,-80
2021-08-09 20:29:19.705995,-104
2021-08-09 20:29:19.705995,-69
2021-08-09 20:29:19.705995,-26
2021-08-09 20:29:19.705995,-33
2021-08-09 20:29:19.705995,-35
2021-08-09 20:29:19.705995,-7
2021-08-09 20:29:19.705995,7
2021-08-09 20:29:19.705995,21
2021-08-09 20:29:19.705995,35
2021-08-09 20:29:19.705995,42
2021-08-09 20:29:19.705995,54
2021-08-09 20:29:19.705995,64
2021-08-09 20:29:19.705995,69
2021-08-09 20:29:19.705995,83
2021-08-09 20:29:19.705995,88
2021-08-09 20:29:19.705995,78
2021-08-09 20:29:19.705995,76
2021-08-09 20:29:19.705995,80
2021-08-09 20:29:19.705995,66
2021-08-09 20:29:19.705995,23
2021-08-09 20:29:19.705995,-4
2021-08-09 20:29:19.705995,-7
2021-08-09 20:29:19.705995,-23
2021-08-09 20:29:19.705995,-45
2021-08-09 20:29:19.705995,-54
2021-08-09 20:29:19.705995,-54
2021-08-09 20:29:19.705995,-71
2021-08-09 20:29:19.705995,-99
2021-08-09 20:29:19.705995,-99
2021-08-09 20:29:19.705995,-90
2021-08-09 20:29:19.705995,-88
2021-08-09 20:29:19.705995,-66
2021-08-09 20:29:19.705995,-47
2021-08-09 20:29:19.705995,-40
2021-08-09 20:29:19.705995,-35
2021-08-09 20:29:19.705995,-30
2021-08-09 20:29:19.705995,-19
2021-08-09 20:29:19.705995,-9
2021-08-09 20:29:19.705995,-9
2021-08-09 20:29:19.705995,-2
2021-08-09 20:29:19.705995,0
2021-08-09 20:29:19.705995,-9
2021-08-09 20:29:19.705995,-19
2021-08-09 20:29:20.242765,-28
2021-08-09 20:29:20.242765,-26
2021-08-09 20:29:20.242765,-23
2021-08-09 20:29:20.242765,-21
2021-08-09 20:29:20.242765,-16
2021-08-09 20:29:20.242765,-23
2021-08-09 20:29:20.242765,-30
2021-08-09 20:29:20.242765,-26
2021-08-09 20:29:20.242765,-21
2021-08-09 20:29:20.242765,-26
2021-08-09 20:29:20.242765,-35
2021-08-09 20:29:20.242765,-30
2021-08-09 20:29:20.242765,-19
2021-08-09 20:29:20.242765,-21
2021-08-09 20:29:20.242765,-9
2021-08-09 20:29:20.242765,2
2021-08-09 20:29:20.242765,-7
2021-08-09 20:29:20.242765,-19
2021-08-09 20:29:20.242765,-28
2021-08-09 20:29:20.242765,-28
2021-08-09 20:29:20.242765,-16
2021-08-09 20:29:20.242765,-9
2021-08-09 20:29:20.242765,-14
2021-08-09 20:29:20.242765,-16
2021-08-09 20:29:20.242765,66
2021-08-09 20:29:20.242765,421
2021-08-09 20:29:20.242765,1197
2021-08-09 20:29:20.242765,1761
2021-08-09 20:29:20.242765,945
2021-08-09 20:29:20.242765,-402
2021-08-09 20:29:20.242765,-459
2021-08-09 20:29:20.242765,0
2021-08-09 20:29:20.242765,-176
2021-08-09 20:29:20.242765,-302
2021-08-09 20:29:20.242765,-133
2021-08-09 20:29:20.242765,-126
2021-08-09 20:29:20.242765,-190
2021-08-09 20:29:20.242765,-128
2021-08-09 20:29:20.242765,-90
2021-08-09 20:29:20.242765,-109
2021-08-09 20:29:20.242765,-83
2021-08-09 20:29:20.242765,-61
2021-08-09 20:29:20.242765,-61
2021-08-09 20:29:20.242765,-35
2021-08-09 20:29:20.242765,-16
2021-08-09 20:29:20.242765,-14
2021-08-09 20:29:20.242765,-2
2021-08-09 20:29:20.242765,11
2021-08-09 20:29:20.242765,30
2021-08-09 20:29:20.242765,47
2021-08-09 20:29:20.242765,61
2021-08-09 20:29:20.242765,73
2021-08-09 20:29:20.242765,83
2021-08-09 20:29:20.242765,95
2021-08-09 20:29:20.242765,85
2021-08-09 20:29:20.242765,71
2021-08-09 20:29:20.242765,69
2021-08-09 20:29:20.242765,54
2021-08-09 20:29:20.242765,33
2021-08-09 20:29:20.242765,19
2021-08-09 20:29:20.242765,-9
2021-08-09 20:29:20.242765,-45
2021-08-09 20:29:20.242765,-66
2021-08-09 20:29:20.242765,-76
2021-08-09 20:29:20.242765,-90
2021-08-09 20:29:20.242765,-107
2021-08-09 20:29:20.242765,-104
2021-08-09 20:29:20.242765,-109
2021-08-09 20:29:20.242765,-123
2021-08-09 20:29:20.242765,-126
2021-08-09 20:29:20.242765,-119
2021-08-09 20:29:20.242765,-97
2021-08-09 20:29:20.242765,-88
2021-08-09 20:29:20.778644,-95
2021-08-09 20:29:20.778644,-80
2021-08-09 20:29:20.778644,-57
2021-08-09 20:29:20.778644,-47
2021-08-09 20:29:20.778644,-40
2021-08-09 20:29:20.778644,-47
2021-08-09 20:29:20.778644,-45
2021-08-09 20:29:20.778644,-38
2021-08-09 20:29:20.778644,-49
2021-08-09 20:29:20.778644,-61
2021-08-09 20:29:20.778644,-57
2021-08-09 20:29:20.778644,-47
2021-08-09 20:29:20.778644,-47
2021-08-09 20:29:20.778644,-47
2021-08-09 20:29:20.778644,-40
2021-08-09 20:29:20.778644,-45
2021-08-09 20:29:20.778644,-49
2021-08-09 20:29:20.778644,-35
2021-08-09 20:29:20.778644,-33
2021-08-09 20:29:20.778644,-35
2021-08-09 20:29:20.778644,-35
2021-08-09 20:29:20.778644,-38
2021-08-09 20:29:20.778644,-42
2021-08-09 20:29:20.778644,-45
2021-08-09 20:29:20.778644,-26
2021-08-09 20:29:20.778644,0
2021-08-09 20:29:20.778644,2
2021-08-09 20:29:20.778644,2
2021-08-09 20:29:20.778644,-2
2021-08-09 20:29:20.778644,-9
2021-08-09 20:29:20.778644,-11
2021-08-09 20:29:20.778644,-26
2021-08-09 20:29:20.778644,-38
2021-08-09 20:29:20.778644,-33
2021-08-09 20:29:20.778644,-26
2021-08-09 20:29:20.778644,-21
2021-08-09 20:29:20.778644,35
2021-08-09 20:29:20.778644,333
2021-08-09 20:29:20.778644,1052
2021-08-09 20:29:20.778644,1704
2021-08-09 20:29:20.778644,1111
2021-08-09 20:29:20.778644,-268
2021-08-09 20:29:20.778644,-530
2021-08-09 20:29:20.778644,-35
2021-08-09 20:29:20.778644,-126
2021-08-09 20:29:20.778644,-304
2021-08-09 20:29:20.778644,-152
2021-08-09 20:29:20.778644,-114
2021-08-09 20:29:20.778644,-169
2021-08-09 20:29:20.778644,-121
2021-08-09 20:29:20.778644,-85
2021-08-09 20:29:20.778644,-107
2021-08-09 20:29:20.778644,-99
2021-08-09 20:29:20.778644,-64
2021-08-09 20:29:20.778644,-54
2021-08-09 20:29:20.778644,-52
2021-08-09 20:29:20.778644,-28
2021-08-09 20:29:20.778644,-11
2021-08-09 20:29:20.778644,-2
2021-08-09 20:29:20.778644,9
2021-08-09 20:29:20.778644,23
2021-08-09 20:29:20.778644,45
2021-08-09 20:29:20.778644,57
2021-08-09 20:29:20.778644,64
2021-08-09 20:29:20.778644,66
2021-08-09 20:29:20.778644,66
2021-08-09 20:29:20.778644,71
2021-08-09 20:29:20.778644,69
2021-08-09 20:29:20.778644,52
2021-08-09 20:29:20.778644,42
2021-08-09 20:29:20.778644,30
2021-08-09 20:29:20.778644,16
2021-08-09 20:29:20.778644,0
2021-08-09 20:29:21.363815,-23
2021-08-09 20:29:21.363815,-47
2021-08-09 20:29:21.363815,-73
2021-08-09 20:29:21.363815,-85
2021-08-09 20:29:21.363815,-95
2021-08-09 20:29:21.363815,-114
2021-08-09 20:29:21.363815,-123
2021-08-09 20:29:21.363815,-121
2021-08-09 20:29:21.363815,-119
2021-08-09 20:29:21.363815,-109
2021-08-09 20:29:21.363815,-99
2021-08-09 20:29:21.363815,-88
2021-08-09 20:29:21.363815,-80
2021-08-09 20:29:21.363815,-76
2021-08-09 20:29:21.363815,-66
2021-08-09 20:29:21.363815,-61
2021-08-09 20:29:21.363815,-54
2021-08-09 20:29:21.363815,-45
2021-08-09 20:29:21.363815,-47
2021-08-09 20:29:21.363815,-49
2021-08-09 20:29:21.363815,-45
2021-08-09 20:29:21.363815,-42
2021-08-09 20:29:21.363815,-38
2021-08-09 20:29:21.363815,-40
2021-08-09 20:29:21.363815,-40
2021-08-09 20:29:21.363815,-40
2021-08-09 20:29:21.363815,-42
2021-08-09 20:29:21.363815,-42
2021-08-09 20:29:21.363815,-40
2021-08-09 20:29:21.363815,-35
2021-08-09 20:29:21.363815,-33
2021-08-09 20:29:21.363815,-38
2021-08-09 20:29:21.363815,-38
2021-08-09 20:29:21.363815,-33
2021-08-09 20:29:21.363815,-30
2021-08-09 20:29:21.363815,-21
2021-08-09 20:29:21.363815,-26
2021-08-09 20:29:21.363815,-23
2021-08-09 20:29:21.363815,-2
2021-08-09 20:29:21.363815,4
2021-08-09 20:29:21.363815,4
2021-08-09 20:29:21.363815,16
2021-08-09 20:29:21.363815,23
2021-08-09 20:29:21.363815,-7
2021-08-09 20:29:21.363815,-42
2021-08-09 20:29:21.363815,-35
2021-08-09 20:29:21.363815,-16
2021-08-09 20:29:21.363815,-21
2021-08-09 20:29:21.363815,-21
2021-08-09 20:29:21.363815,-9
2021-08-09 20:29:21.363815,104
2021-08-09 20:29:21.363815,537
2021-08-09 20:29:21.363815,1316
2021-08-09 20:29:21.363815,1592
2021-08-09 20:29:21.363815,507
2021-08-09 20:29:21.363815,-585
2021-08-09 20:29:21.363815,-342
2021-08-09 20:29:21.363815,2
2021-08-09 20:29:21.363815,-228
2021-08-09 20:29:21.363815,-254
2021-08-09 20:29:21.363815,-107
2021-08-09 20:29:21.363815,-133
2021-08-09 20:29:21.363815,-157
2021-08-09 20:29:21.363815,-99
2021-08-09 20:29:21.363815,-90
2021-08-09 20:29:21.363815,-95
2021-08-09 20:29:21.363815,-64
2021-08-09 20:29:21.363815,-52
2021-08-09 20:29:21.363815,-42
2021-08-09 20:29:21.363815,-23
2021-08-09 20:29:21.363815,-11
2021-08-09 20:29:21.363815,7
2021-08-09 20:29:21.363815,23
2021-08-09 20:29:21.949069,21
2021-08-09 20:29:21.949069,33
2021-08-09 20:29:21.949069,57
2021-08-09 20:29:21.949069,71
2021-08-09 20:29:21.949069,83
2021-08-09 20:29:21.949069,83
2021-08-09 20:29:21.949069,80
2021-08-09 20:29:21.949069,71
2021-08-09 20:29:21.949069,54
2021-08-09 20:29:21.949069,38
2021-08-09 20:29:21.949069,23
2021-08-09 20:29:21.949069,7
2021-08-09 20:29:21.949069,-9
2021-08-09 20:29:21.949069,-28
2021-08-09 20:29:21.949069,-47
2021-08-09 20:29:21.949069,-66
2021-08-09 20:29:21.949069,-78
2021-08-09 20:29:21.949069,-83
2021-08-09 20:29:21.949069,-97
2021-08-09 20:29:21.949069,-109
2021-08-09 20:29:21.949069,-114
2021-08-09 20:29:21.949069,-111
2021-08-09 20:29:21.949069,-95
2021-08-09 20:29:21.949069,-85
2021-08-09 20:29:21.949069,-90
2021-08-09 20:29:21.949069,-80
2021-08-09 20:29:21.949069,-61
2021-08-09 20:29:21.949069,-54
2021-08-09 20:29:21.949069,-59
2021-08-09 20:29:21.949069,-42
2021-08-09 20:29:21.949069,-28
2021-08-09 20:29:21.949069,-30
2021-08-09 20:29:21.949069,-35
2021-08-09 20:29:21.949069,-40
2021-08-09 20:29:21.949069,-40
2021-08-09 20:29:21.949069,-33
2021-08-09 20:29:21.949069,-40
2021-08-09 20:29:21.949069,-47
2021-08-09 20:29:21.949069,-45
2021-08-09 20:29:21.949069,-47
2021-08-09 20:29:21.949069,-47
2021-08-09 20:29:21.949069,-45
2021-08-09 20:29:21.949069,-45
2021-08-09 20:29:21.949069,-45
2021-08-09 20:29:21.949069,-40
2021-08-09 20:29:21.949069,-30
2021-08-09 20:29:21.949069,-33
2021-08-09 20:29:21.949069,-35
2021-08-09 20:29:21.949069,-26
2021-08-09 20:29:21.949069,-35
2021-08-09 20:29:21.949069,-33
2021-08-09 20:29:21.949069,-11
2021-08-09 20:29:21.949069,-4
2021-08-09 20:29:21.949069,-7
2021-08-09 20:29:21.949069,-9
2021-08-09 20:29:21.949069,-21
2021-08-09 20:29:21.949069,-33
2021-08-09 20:29:21.949069,-40
2021-08-09 20:29:21.949069,-30
2021-08-09 20:29:21.949069,-19
2021-08-09 20:29:21.949069,-28
2021-08-09 20:29:21.949069,-38
2021-08-09 20:29:21.949069,9
2021-08-09 20:29:21.949069,266
2021-08-09 20:29:21.949069,885
2021-08-09 20:29:21.949069,1552
2021-08-09 20:29:21.949069,1154
2021-08-09 20:29:21.949069,-209
2021-08-09 20:29:21.949069,-618
2021-08-09 20:29:21.949069,-76
2021-08-09 20:29:21.949069,-78
2021-08-09 20:29:21.949069,-302
2021-08-09 20:29:21.949069,-159
2021-08-09 20:29:22.485218,-80
2021-08-09 20:29:22.485218,-152
2021-08-09 20:29:22.485218,-126
2021-08-09 20:29:22.485218,-71
2021-08-09 20:29:22.485218,-73
2021-08-09 20:29:22.485218,-76
2021-08-09 20:29:22.485218,-49
2021-08-09 20:29:22.485218,-38
2021-08-09 20:29:22.485218,-28
2021-08-09 20:29:22.485218,-7
2021-08-09 20:29:22.485218,4
2021-08-09 20:29:22.485218,9
2021-08-09 20:29:22.485218,14
2021-08-09 20:29:22.485218,30
2021-08-09 20:29:22.485218,52
2021-08-09 20:29:22.485218,61
2021-08-09 20:29:22.485218,76
2021-08-09 20:29:22.485218,83
2021-08-09 20:29:22.485218,76
2021-08-09 20:29:22.485218,76
2021-08-09 20:29:22.485218,76
2021-08-09 20:29:22.485218,64
2021-08-09 20:29:22.485218,59
2021-08-09 20:29:22.485218,47
2021-08-09 20:29:22.485218,26
2021-08-09 20:29:22.485218,-2
2021-08-09 20:29:22.485218,-19
2021-08-09 20:29:22.485218,-38
2021-08-09 20:29:22.485218,-69
2021-08-09 20:29:22.485218,-85
2021-08-09 20:29:22.485218,-90
2021-08-09 20:29:22.485218,-99
2021-08-09 20:29:22.485218,-99
2021-08-09 20:29:22.485218,-95
2021-08-09 20:29:22.485218,-90
2021-08-09 20:29:22.485218,-78
2021-08-09 20:29:22.485218,-73
2021-08-09 20:29:22.485218,-64
2021-08-09 20:29:22.485218,-52
2021-08-09 20:29:22.485218,-40
2021-08-09 20:29:22.485218,-23
2021-08-09 20:29:22.485218,-26
2021-08-09 20:29:22.485218,-40
2021-08-09 20:29:22.485218,-40
2021-08-09 20:29:22.485218,-35
2021-08-09 20:29:22.485218,-30
2021-08-09 20:29:22.485218,-38
2021-08-09 20:29:22.485218,-40
2021-08-09 20:29:22.485218,-26
2021-08-09 20:29:22.485218,-23
2021-08-09 20:29:22.485218,-35
2021-08-09 20:29:22.485218,-42
2021-08-09 20:29:22.485218,-35
2021-08-09 20:29:22.485218,-28
2021-08-09 20:29:22.485218,-35
2021-08-09 20:29:22.485218,-35
2021-08-09 20:29:22.485218,-28
2021-08-09 20:29:22.485218,-19
2021-08-09 20:29:22.485218,-9
2021-08-09 20:29:22.485218,-11
2021-08-09 20:29:22.485218,-30
2021-08-09 20:29:22.485218,-40
2021-08-09 20:29:22.486211,-28
2021-08-09 20:29:22.486211,2
2021-08-09 20:29:22.486211,16
2021-08-09 20:29:22.486211,14
2021-08-09 20:29:22.486211,16
2021-08-09 20:29:22.486211,2
2021-08-09 20:29:22.486211,-14
2021-08-09 20:29:22.486211,-11
2021-08-09 20:29:22.486211,-14
2021-08-09 20:29:22.486211,-23
2021-08-09 20:29:22.486211,-16
2021-08-09 20:29:23.020878,-9
2021-08-09 20:29:23.020878,-2
2021-08-09 20:29:23.020878,123
2021-08-09 20:29:23.020878,618
2021-08-09 20:29:23.020878,1456
2021-08-09 20:29:23.020878,1690
2021-08-09 20:29:23.020878,535
2021-08-09 20:29:23.020878,-561
2021-08-09 20:29:23.020878,-318
2021-08-09 20:29:23.020878,-2
2021-08-09 20:29:23.020878,-245
2021-08-09 20:29:23.020878,-257
2021-08-09 20:29:23.020878,-107
2021-08-09 20:29:23.020878,-145
2021-08-09 20:29:23.020878,-159
2021-08-09 20:29:23.020878,-90
2021-08-09 20:29:23.020878,-83
2021-08-09 20:29:23.020878,-97
2021-08-09 20:29:23.020878,-73
2021-08-09 20:29:23.020878,-54
2021-08-09 20:29:23.020878,-61
2021-08-09 20:29:23.020878,-45
2021-08-09 20:29:23.020878,-19
2021-08-09 20:29:23.020878,-7
2021-08-09 20:29:23.020878,7
2021-08-09 20:29:23.020878,21
2021-08-09 20:29:23.020878,35
2021-08-09 20:29:23.020878,59
2021-08-09 20:29:23.020878,71
2021-08-09 20:29:23.020878,78
2021-08-09 20:29:23.020878,78
2021-08-09 20:29:23.020878,83
2021-08-09 20:29:23.020878,90
2021-08-09 20:29:23.020878,76
2021-08-09 20:29:23.020878,54
2021-08-09 20:29:23.020878,42
2021-08-09 20:29:23.020878,30
2021-08-09 20:29:23.021913,16
2021-08-09 20:29:23.021913,-7
2021-08-09 20:29:23.021913,-42
2021-08-09 20:29:23.021913,-61
2021-08-09 20:29:23.021913,-66
2021-08-09 20:29:23.021913,-80
2021-08-09 20:29:23.021913,-97
2021-08-09 20:29:23.021913,-104
2021-08-09 20:29:23.021913,-102
2021-08-09 20:29:23.021913,-107
2021-08-09 20:29:23.021913,-104
2021-08-09 20:29:23.021913,-90
2021-08-09 20:29:23.021913,-83
2021-08-09 20:29:23.021913,-71
2021-08-09 20:29:23.021913,-64
2021-08-09 20:29:23.021913,-66
2021-08-09 20:29:23.021913,-59
2021-08-09 20:29:23.021913,-47
2021-08-09 20:29:23.021913,-38
2021-08-09 20:29:23.021913,-38
2021-08-09 20:29:23.021913,-33
2021-08-09 20:29:23.021913,-21
2021-08-09 20:29:23.021913,-28
2021-08-09 20:29:23.021913,-38
2021-08-09 20:29:23.021913,-30
2021-08-09 20:29:23.021913,-30
2021-08-09 20:29:23.021913,-35
2021-08-09 20:29:23.021913,-30
2021-08-09 20:29:23.021913,-30
2021-08-09 20:29:23.021913,-33
2021-08-09 20:29:23.021913,-35
2021-08-09 20:29:23.021913,-28
2021-08-09 20:29:23.021913,-19
2021-08-09 20:29:23.021913,-23
2021-08-09 20:29:23.021913,-28
2021-08-09 20:29:23.021913,-28
2021-08-09 20:29:23.606080,-28
2021-08-09 20:29:23.606080,-30
2021-08-09 20:29:23.606080,-21
2021-08-09 20:29:23.606080,7
2021-08-09 20:29:23.606080,11
2021-08-09 20:29:23.606080,-9
2021-08-09 20:29:23.606080,-9
2021-08-09 20:29:23.606080,-11
2021-08-09 20:29:23.606080,-28
2021-08-09 20:29:23.606080,-38
2021-08-09 20:29:23.606080,-45
2021-08-09 20:29:23.606080,-52
2021-08-09 20:29:23.606080,-47
2021-08-09 20:29:23.606080,-38
2021-08-09 20:29:23.606080,-19
2021-08-09 20:29:23.606080,128
2021-08-09 20:29:23.606080,628
2021-08-09 20:29:23.606080,1428
2021-08-09 20:29:23.606080,1566
2021-08-09 20:29:23.606080,378
2021-08-09 20:29:23.606080,-592
2021-08-09 20:29:23.606080,-268
2021-08-09 20:29:23.606080,7
2021-08-09 20:29:23.606080,-245
2021-08-09 20:29:23.606080,-238
2021-08-09 20:29:23.606080,-102
2021-08-09 20:29:23.606080,-152
2021-08-09 20:29:23.606080,-166
2021-08-09 20:29:23.606080,-111
2021-08-09 20:29:23.606080,-97
2021-08-09 20:29:23.606080,-97
2021-08-09 20:29:23.606080,-76
2021-08-09 20:29:23.606080,-52
2021-08-09 20:29:23.606080,-42
2021-08-09 20:29:23.606080,-30
2021-08-09 20:29:23.606080,-14
2021-08-09 20:29:23.606080,-11
2021-08-09 20:29:23.606080,7
2021-08-09 20:29:23.606080,30
2021-08-09 20:29:23.606080,45
2021-08-09 20:29:23.606080,59
2021-08-09 20:29:23.606080,73
2021-08-09 20:29:23.606080,85
2021-08-09 20:29:23.606080,76
2021-08-09 20:29:23.606080,66
2021-08-09 20:29:23.606080,80
2021-08-09 20:29:23.606080,73
2021-08-09 20:29:23.606080,54
2021-08-09 20:29:23.606080,49
2021-08-09 20:29:23.606080,38
2021-08-09 20:29:23.606080,16
2021-08-09 20:29:23.606080,-11
2021-08-09 20:29:23.606080,-38
2021-08-09 20:29:23.606080,-49
2021-08-09 20:29:23.606080,-69
2021-08-09 20:29:23.606080,-83
2021-08-09 20:29:23.606080,-88
2021-08-09 20:29:23.606080,-90
2021-08-09 20:29:23.606080,-83
2021-08-09 20:29:23.606080,-90
2021-08-09 20:29:23.606080,-99
2021-08-09 20:29:23.606080,-88
2021-08-09 20:29:23.606080,-76
2021-08-09 20:29:23.606080,-61
2021-08-09 20:29:23.606080,-52
2021-08-09 20:29:23.606080,-57
2021-08-09 20:29:23.606080,-47
2021-08-09 20:29:23.606080,-28
2021-08-09 20:29:23.606080,-28
2021-08-09 20:29:23.606080,-35
2021-08-09 20:29:23.606080,-28
2021-08-09 20:29:23.606080,-14
2021-08-09 20:29:23.606080,-21
2021-08-09 20:29:24.142818,-30
2021-08-09 20:29:24.142818,-33
2021-08-09 20:29:24.142818,-38
2021-08-09 20:29:24.142818,-35
2021-08-09 20:29:24.142818,-40
2021-08-09 20:29:24.142818,-42
2021-08-09 20:29:24.142818,-28
2021-08-09 20:29:24.142818,-26
2021-08-09 20:29:24.142818,-45
2021-08-09 20:29:24.142818,-57
2021-08-09 20:29:24.142818,-42
2021-08-09 20:29:24.142818,-33
2021-08-09 20:29:24.142818,-52
2021-08-09 20:29:24.142818,-54
2021-08-09 20:29:24.142818,-28
2021-08-09 20:29:24.142818,-16
2021-08-09 20:29:24.142818,-9
2021-08-09 20:29:24.142818,-7
2021-08-09 20:29:24.142818,0
2021-08-09 20:29:24.142818,-9
2021-08-09 20:29:24.142818,-49
2021-08-09 20:29:24.142818,-64
2021-08-09 20:29:24.142818,-45
2021-08-09 20:29:24.142818,-40
2021-08-09 20:29:24.142818,-35
2021-08-09 20:29:24.142818,-28
2021-08-09 20:29:24.142818,-7
2021-08-09 20:29:24.142818,142
2021-08-09 20:29:24.142818,604
2021-08-09 20:29:24.142818,1354
2021-08-09 20:29:24.142818,1487
2021-08-09 20:29:24.142818,321
2021-08-09 20:29:24.142818,-630
2021-08-09 20:29:24.142818,-280
2021-08-09 20:29:24.142818,9
2021-08-09 20:29:24.142818,-240
2021-08-09 20:29:24.142818,-226
2021-08-09 20:29:24.142818,-71
2021-08-09 20:29:24.142818,-121
2021-08-09 20:29:24.142818,-140
2021-08-09 20:29:24.142818,-76
2021-08-09 20:29:24.142818,-71
2021-08-09 20:29:24.142818,-78
2021-08-09 20:29:24.142818,-42
2021-08-09 20:29:24.142818,-23
2021-08-09 20:29:24.142818,-21
2021-08-09 20:29:24.142818,-9
2021-08-09 20:29:24.142818,9
2021-08-09 20:29:24.142818,28
2021-08-09 20:29:24.142818,35
2021-08-09 20:29:24.142818,47
2021-08-09 20:29:24.142818,59
2021-08-09 20:29:24.142818,69
2021-08-09 20:29:24.142818,85
2021-08-09 20:29:24.142818,97
2021-08-09 20:29:24.142818,107
2021-08-09 20:29:24.142818,102
2021-08-09 20:29:24.142818,85
2021-08-09 20:29:24.142818,73
2021-08-09 20:29:24.142818,57
2021-08-09 20:29:24.142818,40
2021-08-09 20:29:24.142818,28
2021-08-09 20:29:24.142818,11
2021-08-09 20:29:24.142818,-4
2021-08-09 20:29:24.142818,-23
2021-08-09 20:29:24.142818,-47
2021-08-09 20:29:24.142818,-69
2021-08-09 20:29:24.142818,-88
2021-08-09 20:29:24.142818,-92
2021-08-09 20:29:24.142818,-102
2021-08-09 20:29:24.142818,-111
2021-08-09 20:29:24.142818,-92
2021-08-09 20:29:24.142818,-78
2021-08-09 20:29:24.726940,-73
2021-08-09 20:29:24.726940,-66
2021-08-09 20:29:24.726940,-64
2021-08-09 20:29:24.726940,-57
2021-08-09 20:29:24.726940,-52
2021-08-09 20:29:24.726940,-49
2021-08-09 20:29:24.726940,-45
2021-08-09 20:29:24.726940,-45
2021-08-09 20:29:24.726940,-47
2021-08-09 20:29:24.726940,-42
2021-08-09 20:29:24.726940,-40
2021-08-09 20:29:24.726940,-40
2021-08-09 20:29:24.726940,-49
2021-08-09 20:29:24.726940,-54
2021-08-09 20:29:24.726940,-54
2021-08-09 20:29:24.726940,-54
2021-08-09 20:29:24.726940,-49
2021-08-09 20:29:24.726940,-52
2021-08-09 20:29:24.726940,-57
2021-08-09 20:29:24.726940,-47
2021-08-09 20:29:24.726940,-40
2021-08-09 20:29:24.726940,-42
2021-08-09 20:29:24.726940,-38
2021-08-09 20:29:24.726940,-23
2021-08-09 20:29:24.726940,-11
2021-08-09 20:29:24.726940,-16
2021-08-09 20:29:24.726940,-16
2021-08-09 20:29:24.726940,-16
2021-08-09 20:29:24.726940,-38
2021-08-09 20:29:24.726940,-52
2021-08-09 20:29:24.726940,-45
2021-08-09 20:29:24.726940,-42
2021-08-09 20:29:24.726940,-52
2021-08-09 20:29:24.726940,-47
2021-08-09 20:29:24.726940,-19
2021-08-09 20:29:24.726940,85
2021-08-09 20:29:24.726940,461
2021-08-09 20:29:24.726940,1192
2021-08-09 20:29:24.726940,1544
2021-08-09 20:29:24.726940,576
2021-08-09 20:29:24.726940,-583
2021-08-09 20:29:24.726940,-407
2021-08-09 20:29:24.726940,28
2021-08-09 20:29:24.726940,-178
2021-08-09 20:29:24.726940,-254
2021-08-09 20:29:24.726940,-95
2021-08-09 20:29:24.726940,-104
2021-08-09 20:29:24.726940,-138
2021-08-09 20:29:24.726940,-90
2021-08-09 20:29:24.726940,-71
2021-08-09 20:29:24.726940,-66
2021-08-09 20:29:24.726940,-52
2021-08-09 20:29:24.726940,-40
2021-08-09 20:29:24.726940,-21
2021-08-09 20:29:24.726940,-4
2021-08-09 20:29:24.726940,9
2021-08-09 20:29:24.726940,19
2021-08-09 20:29:24.726940,23
2021-08-09 20:29:24.726940,40
2021-08-09 20:29:24.726940,57
2021-08-09 20:29:24.726940,71
2021-08-09 20:29:24.726940,85
2021-08-09 20:29:24.726940,95
2021-08-09 20:29:24.726940,99
2021-08-09 20:29:24.726940,88
2021-08-09 20:29:24.726940,83
2021-08-09 20:29:24.726940,88
2021-08-09 20:29:24.726940,76
2021-08-09 20:29:24.726940,54
2021-08-09 20:29:24.726940,35
2021-08-09 20:29:24.726940,11
2021-08-09 20:29:24.726940,-4
2021-08-09 20:29:24.726940,-23
2021-08-09 20:29:25.312372,-47
2021-08-09 20:29:25.312372,-69
2021-08-09 20:29:25.312372,-90
2021-08-09 20:29:25.312372,-97
2021-08-09 20:29:25.312372,-97
2021-08-09 20:29:25.312372,-99
2021-08-09 20:29:25.312372,-99
2021-08-09 20:29:25.312372,-104
2021-08-09 20:29:25.312372,-104
2021-08-09 20:29:25.312372,-92
2021-08-09 20:29:25.312372,-78
2021-08-09 20:29:25.312372,-69
2021-08-09 20:29:25.312372,-57
2021-08-09 20:29:25.312372,-38
2021-08-09 20:29:25.312372,-40
2021-08-09 20:29:25.312372,-49
2021-08-09 20:29:25.312372,-40
2021-08-09 20:29:25.312372,-42
2021-08-09 20:29:25.312372,-49
2021-08-09 20:29:25.312372,-40
2021-08-09 20:29:25.312372,-42
2021-08-09 20:29:25.312372,-52
2021-08-09 20:29:25.312372,-49
2021-08-09 20:29:25.312372,-45
2021-08-09 20:29:25.312372,-42
2021-08-09 20:29:25.312372,-45
2021-08-09 20:29:25.312372,-45
2021-08-09 20:29:25.312372,-38
2021-08-09 20:29:25.312372,-33
2021-08-09 20:29:25.312372,-40
2021-08-09 20:29:25.312372,-45
2021-08-09 20:29:25.312372,-26
2021-08-09 20:29:25.312372,2
2021-08-09 20:29:25.312372,2
2021-08-09 20:29:25.312372,0
2021-08-09 20:29:25.312372,0
2021-08-09 20:29:25.312372,-16
2021-08-09 20:29:25.312372,-30
2021-08-09 20:29:25.312372,-38
2021-08-09 20:29:25.312372,-33
2021-08-09 20:29:25.312372,-28
2021-08-09 20:29:25.312372,-26
2021-08-09 20:29:25.312372,-19
2021-08-09 20:29:25.312372,4
2021-08-09 20:29:25.312372,199
2021-08-09 20:29:25.312372,818
2021-08-09 20:29:25.312372,1611
2021-08-09 20:29:25.312372,1430
2021-08-09 20:29:25.312372,66
2021-08-09 20:29:25.312372,-626
2021-08-09 20:29:25.312372,-169
2021-08-09 20:29:25.312372,-49
2021-08-09 20:29:25.312372,-292
2021-08-09 20:29:25.312372,-204
2021-08-09 20:29:25.312372,-109
2021-08-09 20:29:25.312372,-169
2021-08-09 20:29:25.312372,-149
2021-08-09 20:29:25.312372,-92
2021-08-09 20:29:25.312372,-97
2021-08-09 20:29:25.312372,-99
2021-08-09 20:29:25.312372,-66
2021-08-09 20:29:25.312372,-52
2021-08-09 20:29:25.312372,-45
2021-08-09 20:29:25.312372,-19
2021-08-09 20:29:25.312372,-7
2021-08-09 20:29:25.312372,-7
2021-08-09 20:29:25.312372,14
2021-08-09 20:29:25.312372,28
2021-08-09 20:29:25.312372,45
2021-08-09 20:29:25.312372,61
2021-08-09 20:29:25.312372,73
2021-08-09 20:29:25.312372,78
2021-08-09 20:29:25.312372,76
2021-08-09 20:29:25.848736,80
2021-08-09 20:29:25.848736,83
2021-08-09 20:29:25.848736,71
2021-08-09 20:29:25.848736,59
2021-08-09 20:29:25.848736,42
2021-08-09 20:29:25.848736,21
2021-08-09 20:29:25.848736,-4
2021-08-09 20:29:25.848736,-35
2021-08-09 20:29:25.848736,-52
2021-08-09 20:29:25.848736,-66
2021-08-09 20:29:25.848736,-92
2021-08-09 20:29:25.848736,-109
2021-08-09 20:29:25.848736,-123
2021-08-09 20:29:25.848736,-130
2021-08-09 20:29:25.848736,-133
2021-08-09 20:29:25.848736,-133
2021-08-09 20:29:25.848736,-119
2021-08-09 20:29:25.848736,-107
2021-08-09 20:29:25.848736,-97
2021-08-09 20:29:25.848736,-88
2021-08-09 20:29:25.848736,-85
2021-08-09 20:29:25.848736,-66
2021-08-09 20:29:25.848736,-52
2021-08-09 20:29:25.848736,-52
2021-08-09 20:29:25.848736,-47
2021-08-09 20:29:25.848736,-42
2021-08-09 20:29:25.848736,-38
2021-08-09 20:29:25.848736,-33
2021-08-09 20:29:25.848736,-40
2021-08-09 20:29:25.848736,-42
2021-08-09 20:29:25.848736,-42
2021-08-09 20:29:25.848736,-42
2021-08-09 20:29:25.848736,-35
2021-08-09 20:29:25.848736,-35
2021-08-09 20:29:25.848736,-33
2021-08-09 20:29:25.848736,-33
2021-08-09 20:29:25.848736,-33
2021-08-09 20:29:25.848736,-35
2021-08-09 20:29:25.848736,-45
2021-08-09 20:29:25.848736,-28
2021-08-09 20:29:25.848736,0
2021-08-09 20:29:25.848736,0
2021-08-09 20:29:25.848736,2
2021-08-09 20:29:25.848736,0
2021-08-09 20:29:25.848736,-19
2021-08-09 20:29:25.848736,-30
2021-08-09 20:29:25.848736,-33
2021-08-09 20:29:25.848736,-23
2021-08-09 20:29:25.848736,-19
2021-08-09 20:29:25.848736,-26
2021-08-09 20:29:25.848736,-21
2021-08-09 20:29:25.848736,2
2021-08-09 20:29:25.848736,166
2021-08-09 20:29:25.848736,695
2021-08-09 20:29:25.848736,1492
2021-08-09 20:29:25.848736,1540
2021-08-09 20:29:25.848736,278
2021-08-09 20:29:25.848736,-621
2021-08-09 20:29:25.848736,-238
2021-08-09 20:29:25.848736,-9
2021-08-09 20:29:25.848736,-264
2021-08-09 20:29:25.848736,-230
2021-08-09 20:29:25.848736,-102
2021-08-09 20:29:25.848736,-152
2021-08-09 20:29:25.848736,-166
2021-08-09 20:29:25.848736,-109
2021-08-09 20:29:25.848736,-95
2021-08-09 20:29:25.848736,-102
2021-08-09 20:29:25.848736,-76
2021-08-09 20:29:25.848736,-64
2021-08-09 20:29:25.848736,-64
2021-08-09 20:29:25.848736,-42
2021-08-09 20:29:25.848736,-23
2021-08-09 20:29:26.434042,-14
2021-08-09 20:29:26.434042,-2
2021-08-09 20:29:26.434042,14
2021-08-09 20:29:26.434042,40
2021-08-09 20:29:26.434042,49
2021-08-09 20:29:26.434042,59
2021-08-09 20:29:26.434042,73
2021-08-09 20:29:26.434042,69
2021-08-09 20:29:26.434042,64
2021-08-09 20:29:26.434042,61
2021-08-09 20:29:26.434042,52
2021-08-09 20:29:26.434042,38
2021-08-09 20:29:26.434042,30
2021-08-09 20:29:26.434042,21
2021-08-09 20:29:26.434042,-16
2021-08-09 20:29:26.434042,-57
2021-08-09 20:29:26.434042,-61
2021-08-09 20:29:26.434042,-71
2021-08-09 20:29:26.434042,-95
2021-08-09 20:29:26.434042,-104
2021-08-09 20:29:26.434042,-109
2021-08-09 20:29:26.434042,-116
2021-08-09 20:29:26.434042,-119
2021-08-09 20:29:26.434042,-111
2021-08-09 20:29:26.434042,-102
2021-08-09 20:29:26.434042,-97
2021-08-09 20:29:26.434042,-83
2021-08-09 20:29:26.434042,-69
2021-08-09 20:29:26.434042,-69
2021-08-09 20:29:26.434042,-61
2021-08-09 20:29:26.434042,-59
2021-08-09 20:29:26.434042,-57
2021-08-09 20:29:26.434042,-42
2021-08-09 20:29:26.434042,-40
2021-08-09 20:29:26.434042,-38
2021-08-09 20:29:26.434042,-35
2021-08-09 20:29:26.434042,-40
2021-08-09 20:29:26.434042,-40
2021-08-09 20:29:26.434042,-40
2021-08-09 20:29:26.434042,-33
2021-08-09 20:29:26.434042,-26
2021-08-09 20:29:26.434042,-33
2021-08-09 20:29:26.434042,-30
2021-08-09 20:29:26.434042,-26
2021-08-09 20:29:26.434042,-28
2021-08-09 20:29:26.434042,-33
2021-08-09 20:29:26.434042,-28
2021-08-09 20:29:26.434042,4
2021-08-09 20:29:26.434042,21
2021-08-09 20:29:26.434042,11
2021-08-09 20:29:26.434042,9
2021-08-09 20:29:26.434042,7
2021-08-09 20:29:26.434042,-7
2021-08-09 20:29:26.434042,-23
2021-08-09 20:29:26.434042,-30
2021-08-09 20:29:26.434042,-11
2021-08-09 20:29:26.434042,-4
2021-08-09 20:29:26.434042,-11
2021-08-09 20:29:26.434042,-4
2021-08-09 20:29:26.434042,88
2021-08-09 20:29:26.434042,461
2021-08-09 20:29:26.434042,1197
2021-08-09 20:29:26.434042,1621
2021-08-09 20:29:26.434042,726
2021-08-09 20:29:26.434042,-509
2021-08-09 20:29:26.434042,-428
2021-08-09 20:29:26.434042,23
2021-08-09 20:29:26.434042,-169
2021-08-09 20:29:26.434042,-249
2021-08-09 20:29:26.434042,-90
2021-08-09 20:29:26.434042,-109
2021-08-09 20:29:26.434042,-154
2021-08-09 20:29:26.434042,-102
2021-08-09 20:29:26.969732,-71
2021-08-09 20:29:26.969732,-73
2021-08-09 20:29:26.969732,-52
2021-08-09 20:29:26.969732,-28
2021-08-09 20:29:26.969732,-30
2021-08-09 20:29:26.969732,-21
2021-08-09 20:29:26.969732,7
2021-08-09 20:29:26.969732,19
2021-08-09 20:29:26.969732,28
2021-08-09 20:29:26.969732,47
2021-08-09 20:29:26.969732,59
2021-08-09 20:29:26.969732,64
2021-08-09 20:29:26.969732,69
2021-08-09 20:29:26.969732,83
2021-08-09 20:29:26.969732,92
2021-08-09 20:29:26.969732,88
2021-08-09 20:29:26.969732,83
2021-08-09 20:29:26.969732,69
2021-08-09 20:29:26.969732,57
2021-08-09 20:29:26.969732,49
2021-08-09 20:29:26.969732,30
2021-08-09 20:29:26.969732,7
2021-08-09 20:29:26.969732,-21
2021-08-09 20:29:26.969732,-47
2021-08-09 20:29:26.969732,-69
2021-08-09 20:29:26.969732,-90
2021-08-09 20:29:26.969732,-102
2021-08-09 20:29:26.969732,-107
2021-08-09 20:29:26.969732,-114
2021-08-09 20:29:26.969732,-116
2021-08-09 20:29:26.969732,-119
2021-08-09 20:29:26.969732,-104
2021-08-09 20:29:26.969732,-83
2021-08-09 20:29:26.969732,-71
2021-08-09 20:29:26.969732,-64
2021-08-09 20:29:26.969732,-66
2021-08-09 20:29:26.969732,-61
2021-08-09 20:29:26.969732,-42
2021-08-09 20:29:26.969732,-35
2021-08-09 20:29:26.969732,-35
2021-08-09 20:29:26.969732,-33
2021-08-09 20:29:26.969732,-33
2021-08-09 20:29:26.969732,-30
2021-08-09 20:29:26.969732,-35
2021-08-09 20:29:26.969732,-40
2021-08-09 20:29:26.969732,-33
2021-08-09 20:29:26.969732,-30
2021-08-09 20:29:26.969732,-28
2021-08-09 20:29:26.969732,-21
2021-08-09 20:29:26.969732,-26
2021-08-09 20:29:26.969732,-45
2021-08-09 20:29:26.969732,-54
2021-08-09 20:29:26.969732,-33
2021-08-09 20:29:26.969732,-19
2021-08-09 20:29:26.969732,-19
2021-08-09 20:29:26.969732,-11
2021-08-09 20:29:26.969732,-11
2021-08-09 20:29:26.969732,-21
2021-08-09 20:29:26.969732,-21
2021-08-09 20:29:26.969732,-28
2021-08-09 20:29:26.969732,-30
2021-08-09 20:29:26.969732,-26
2021-08-09 20:29:26.969732,-26
2021-08-09 20:29:26.969732,-14
2021-08-09 20:29:26.969732,19
2021-08-09 20:29:26.969732,204
2021-08-09 20:29:26.969732,759
2021-08-09 20:29:26.969732,1504
2021-08-09 20:29:26.969732,1342
2021-08-09 20:29:26.969732,0
2021-08-09 20:29:26.969732,-652
2021-08-09 20:29:26.969732,-130
2021-08-09 20:29:26.969732,0
2021-08-09 20:29:27.506017,-252
2021-08-09 20:29:27.506017,-164
2021-08-09 20:29:27.506017,-71
2021-08-09 20:29:27.506017,-135
2021-08-09 20:29:27.506017,-116
2021-08-09 20:29:27.506017,-57
2021-08-09 20:29:27.506017,-66
2021-08-09 20:29:27.506017,-78
2021-08-09 20:29:27.506017,-54
2021-08-09 20:29:27.506017,-40
2021-08-09 20:29:27.506017,-33
2021-08-09 20:29:27.506017,-19
2021-08-09 20:29:27.506017,-14
2021-08-09 20:29:27.506017,2
2021-08-09 20:29:27.506017,19
2021-08-09 20:29:27.506017,26
2021-08-09 20:29:27.506017,40
2021-08-09 20:29:27.506017,57
2021-08-09 20:29:27.506017,76
2021-08-09 20:29:27.506017,90
2021-08-09 20:29:27.506017,90
2021-08-09 20:29:27.506017,83
2021-08-09 20:29:27.506017,73
2021-08-09 20:29:27.506017,66
2021-08-09 20:29:27.506017,61
2021-08-09 20:29:27.506017,38
2021-08-09 20:29:27.506017,7
2021-08-09 20:29:27.506017,-16
2021-08-09 20:29:27.506017,-38
2021-08-09 20:29:27.506017,-52
2021-08-09 20:29:27.506017,-71
2021-08-09 20:29:27.506017,-90
2021-08-09 20:29:27.506017,-104
2021-08-09 20:29:27.506017,-123
2021-08-09 20:29:27.506017,-128
2021-08-09 20:29:27.506017,-121
2021-08-09 20:29:27.506017,-109
2021-08-09 20:29:27.506017,-97
2021-08-09 20:29:27.506017,-88
2021-08-09 20:29:27.506017,-76
2021-08-09 20:29:27.506017,-66
2021-08-09 20:29:27.506017,-61
2021-08-09 20:29:27.506017,-52
2021-08-09 20:29:27.506017,-47
2021-08-09 20:29:27.506017,-40
2021-08-09 20:29:27.506017,-45
2021-08-09 20:29:27.506017,-57
2021-08-09 20:29:27.506017,-49
2021-08-09 20:29:27.506017,-47
2021-08-09 20:29:27.506017,-52
2021-08-09 20:29:27.506017,-47
2021-08-09 20:29:27.506017,-47
2021-08-09 20:29:27.506017,-52
2021-08-09 20:29:27.506017,-49
2021-08-09 20:29:27.506017,-47
2021-08-09 20:29:27.506017,-38
2021-08-09 20:29:27.506017,-35
2021-08-09 20:29:27.506017,-42
2021-08-09 20:29:27.506017,-49
2021-08-09 20:29:27.506017,-40
2021-08-09 20:29:27.506017,-11
2021-08-09 20:29:27.506017,-4
2021-08-09 20:29:27.506017,-7
2021-08-09 20:29:27.506017,-2
2021-08-09 20:29:27.506017,-14
2021-08-09 20:29:27.506017,-23
2021-08-09 20:29:27.506017,-26
2021-08-09 20:29:27.506017,-28
2021-08-09 20:29:27.506017,-21
2021-08-09 20:29:27.506017,-9
2021-08-09 20:29:27.506017,-9
2021-08-09 20:29:27.506017,11
2021-08-09 20:29:27.506017,211
2021-08-09 20:29:28.139772,828
2021-08-09 20:29:28.139772,1635
2021-08-09 20:29:28.139772,1482
2021-08-09 20:29:28.139772,114
2021-08-09 20:29:28.139772,-621
2021-08-09 20:29:28.139772,-176
2021-08-09 20:29:28.139772,-38
2021-08-09 20:29:28.139772,-283
2021-08-09 20:29:28.139772,-197
2021-08-09 20:29:28.139772,-90
2021-08-09 20:29:28.139772,-157
2021-08-09 20:29:28.139772,-145
2021-08-09 20:29:28.139772,-90
2021-08-09 20:29:28.139772,-92
2021-08-09 20:29:28.139772,-88
2021-08-09 20:29:28.139772,-59
2021-08-09 20:29:28.139772,-45
2021-08-09 20:29:28.139772,-45
2021-08-09 20:29:28.139772,-28
2021-08-09 20:29:28.139772,-9
2021-08-09 20:29:28.139772,-4
2021-08-09 20:29:28.139772,9
2021-08-09 20:29:28.139772,28
2021-08-09 20:29:28.139772,40
2021-08-09 20:29:28.139772,61
2021-08-09 20:29:28.139772,78
2021-08-09 20:29:28.139772,88
2021-08-09 20:29:28.139772,92
2021-08-09 20:29:28.139772,88
2021-08-09 20:29:28.139772,88
2021-08-09 20:29:28.139772,80
2021-08-09 20:29:28.139772,66
2021-08-09 20:29:28.139772,54
2021-08-09 20:29:28.139772,26
2021-08-09 20:29:28.139772,-7
2021-08-09 20:29:28.139772,-42
2021-08-09 20:29:28.139772,-64
2021-08-09 20:29:28.139772,-80
2021-08-09 20:29:28.139772,-99
2021-08-09 20:29:28.139772,-114
2021-08-09 20:29:28.139772,-119
2021-08-09 20:29:28.139772,-121
2021-08-09 20:29:28.139772,-116
2021-08-09 20:29:28.139772,-121
2021-08-09 20:29:28.139772,-121
2021-08-09 20:29:28.139772,-109
2021-08-09 20:29:28.139772,-99
2021-08-09 20:29:28.139772,-88
2021-08-09 20:29:28.139772,-78
2021-08-09 20:29:28.139772,-64
2021-08-09 20:29:28.139772,-47
2021-08-09 20:29:28.139772,-40
2021-08-09 20:29:28.139772,-35
2021-08-09 20:29:28.139772,-33
2021-08-09 20:29:28.139772,-30
2021-08-09 20:29:28.139772,-30
2021-08-09 20:29:28.139772,-35
2021-08-09 20:29:28.139772,-33
2021-08-09 20:29:28.139772,-28
2021-08-09 20:29:28.139772,-28
2021-08-09 20:29:28.139772,-30
2021-08-09 20:29:28.139772,-33
2021-08-09 20:29:28.139772,-30
2021-08-09 20:29:28.139772,-23
2021-08-09 20:29:28.139772,-26
2021-08-09 20:29:28.139772,-28
2021-08-09 20:29:28.139772,-33
2021-08-09 20:29:28.139772,-33
2021-08-09 20:29:28.139772,-16
2021-08-09 20:29:28.139772,-4
2021-08-09 20:29:28.139772,2
2021-08-09 20:29:28.139772,9
2021-08-09 20:29:28.139772,2
2021-08-09 20:29:28.676932,-11
2021-08-09 20:29:28.676932,-23
2021-08-09 20:29:28.676932,-28
2021-08-09 20:29:28.676932,-23
2021-08-09 20:29:28.676932,-19
2021-08-09 20:29:28.676932,-11
2021-08-09 20:29:28.676932,-7
2021-08-09 20:29:28.676932,23
2021-08-09 20:29:28.676932,264
2021-08-09 20:29:28.676932,935
2021-08-09 20:29:28.676932,1694
2021-08-09 20:29:28.676932,1325
2021-08-09 20:29:28.676932,-80
2021-08-09 20:29:28.676932,-571
2021-08-09 20:29:28.676932,-90
2021-08-09 20:29:28.676932,-83
2021-08-09 20:29:28.676932,-297
2021-08-09 20:29:28.676932,-173
2021-08-09 20:29:28.676932,-97
2021-08-09 20:29:28.676932,-159
2021-08-09 20:29:28.676932,-135
2021-08-09 20:29:28.676932,-83
2021-08-09 20:29:28.676932,-90
2021-08-09 20:29:28.676932,-83
2021-08-09 20:29:28.676932,-49
2021-08-09 20:29:28.676932,-42
2021-08-09 20:29:28.676932,-47
2021-08-09 20:29:28.676932,-42
2021-08-09 20:29:28.676932,-28
2021-08-09 20:29:28.676932,-9
2021-08-09 20:29:28.676932,4
2021-08-09 20:29:28.676932,19
2021-08-09 20:29:28.676932,38
2021-08-09 20:29:28.676932,49
2021-08-09 20:29:28.676932,66
2021-08-09 20:29:28.676932,78
2021-08-09 20:29:28.676932,80
2021-08-09 20:29:28.676932,80
2021-08-09 20:29:28.676932,76
2021-08-09 20:29:28.676932,69
2021-08-09 20:29:28.676932,52
2021-08-09 20:29:28.676932,38
2021-08-09 20:29:28.676932,23
2021-08-09 20:29:28.676932,-9
2021-08-09 20:29:28.676932,-35
2021-08-09 20:29:28.676932,-42
2021-08-09 20:29:28.676932,-64
2021-08-09 20:29:28.676932,-92
2021-08-09 20:29:28.676932,-107
2021-08-09 20:29:28.676932,-107
2021-08-09 20:29:28.676932,-114
2021-08-09 20:29:28.676932,-121
2021-08-09 20:29:28.676932,-116
2021-08-09 20:29:28.676932,-111
2021-08-09 20:29:28.676932,-107
2021-08-09 20:29:28.676932,-95
2021-08-09 20:29:28.676932,-88
2021-08-09 20:29:28.676932,-71
2021-08-09 20:29:28.676932,-52
2021-08-09 20:29:28.676932,-49
2021-08-09 20:29:28.676932,-47
2021-08-09 20:29:28.676932,-38
2021-08-09 20:29:28.676932,-33
2021-08-09 20:29:28.676932,-35
2021-08-09 20:29:28.676932,-40
2021-08-09 20:29:28.676932,-40
2021-08-09 20:29:28.676932,-40
2021-08-09 20:29:28.676932,-40
2021-08-09 20:29:28.676932,-38
2021-08-09 20:29:28.676932,-33
2021-08-09 20:29:28.676932,-26
2021-08-09 20:29:28.676932,-28
2021-08-09 20:29:28.676932,-40
2021-08-09 20:29:29.309725,-35
2021-08-09 20:29:29.309725,-30
2021-08-09 20:29:29.309725,-26
2021-08-09 20:29:29.309725,-23
2021-08-09 20:29:29.309725,-33
2021-08-09 20:29:29.309725,-30
2021-08-09 20:29:29.309725,0
2021-08-09 20:29:29.309725,16
2021-08-09 20:29:29.309725,14
2021-08-09 20:29:29.309725,11
2021-08-09 20:29:29.309725,-2
2021-08-09 20:29:29.309725,-33
2021-08-09 20:29:29.309725,-45
2021-08-09 20:29:29.309725,-33
2021-08-09 20:29:29.309725,-30
2021-08-09 20:29:29.309725,-23
2021-08-09 20:29:29.309725,-9
2021-08-09 20:29:29.309725,-9
2021-08-09 20:29:29.309725,88
2021-08-09 20:29:29.309725,516
2021-08-09 20:29:29.309725,1313
2021-08-09 20:29:29.309725,1656
2021-08-09 20:29:29.309725,611
2021-08-09 20:29:29.309725,-552
2021-08-09 20:29:29.309725,-368
2021-08-09 20:29:29.309725,11
2021-08-09 20:29:29.309725,-209
2021-08-09 20:29:29.309725,-254
2021-08-09 20:29:29.309725,-97
2021-08-09 20:29:29.309725,-126
2021-08-09 20:29:29.309725,-164
2021-08-09 20:29:29.309725,-99
2021-08-09 20:29:29.309725,-78
2021-08-09 20:29:29.309725,-92
2021-08-09 20:29:29.309725,-69
2021-08-09 20:29:29.309725,-40
2021-08-09 20:29:29.309725,-35
2021-08-09 20:29:29.309725,-28
2021-08-09 20:29:29.309725,-14
2021-08-09 20:29:29.309725,4
2021-08-09 20:29:29.309725,11
2021-08-09 20:29:29.309725,26
2021-08-09 20:29:29.309725,47
2021-08-09 20:29:29.309725,57
2021-08-09 20:29:29.309725,61
2021-08-09 20:29:29.309725,76
2021-08-09 20:29:29.309725,88
2021-08-09 20:29:29.309725,92
2021-08-09 20:29:29.309725,85
2021-08-09 20:29:29.309725,78
2021-08-09 20:29:29.309725,69
2021-08-09 20:29:29.309725,49
2021-08-09 20:29:29.309725,35
2021-08-09 20:29:29.309725,14
2021-08-09 20:29:29.309725,-19
2021-08-09 20:29:29.309725,-42
2021-08-09 20:29:29.309725,-57
2021-08-09 20:29:29.309725,-71
2021-08-09 20:29:29.309725,-95
2021-08-09 20:29:29.309725,-109
2021-08-09 20:29:29.309725,-107
2021-08-09 20:29:29.309725,-111
2021-08-09 20:29:29.309725,-114
2021-08-09 20:29:29.309725,-104
2021-08-09 20:29:29.309725,-97
2021-08-09 20:29:29.309725,-90
2021-08-09 20:29:29.309725,-83
2021-08-09 20:29:29.309725,-73
2021-08-09 20:29:29.309725,-59
2021-08-09 20:29:29.309725,-52
2021-08-09 20:29:29.309725,-49
2021-08-09 20:29:29.309725,-40
2021-08-09 20:29:29.309725,-35
2021-08-09 20:29:29.796991,-33
2021-08-09 20:29:29.796991,-35
2021-08-09 20:29:29.796991,-33
2021-08-09 20:29:29.796991,-30
2021-08-09 20:29:29.796991,-42
2021-08-09 20:29:29.796991,-47
2021-08-09 20:29:29.796991,-38
2021-08-09 20:29:29.796991,-38
2021-08-09 20:29:29.796991,-38
2021-08-09 20:29:29.796991,-38
2021-08-09 20:29:29.796991,-33
2021-08-09 20:29:29.796991,-33
2021-08-09 20:29:29.796991,-38
2021-08-09 20:29:29.796991,-40
2021-08-09 20:29:29.796991,-45
2021-08-09 20:29:29.796991,-26
2021-08-09 20:29:29.796991,2
2021-08-09 20:29:29.796991,-2
2021-08-09 20:29:29.796991,-4
2021-08-09 20:29:29.796991,-4
2021-08-09 20:29:29.796991,-33
2021-08-09 20:29:29.796991,-49
2021-08-09 20:29:29.796991,-47
2021-08-09 20:29:29.796991,-42
2021-08-09 20:29:29.796991,-35
2021-08-09 20:29:29.796991,-21
2021-08-09 20:29:29.796991,-11
2021-08-09 20:29:29.796991,40
2021-08-09 20:29:29.796991,330
2021-08-09 20:29:29.796991,1021
2021-08-09 20:29:29.796991,1613
2021-08-09 20:29:29.796991,975
2021-08-09 20:29:29.796991,-371
2021-08-09 20:29:29.796991,-540
2021-08-09 20:29:29.796991,-4
2021-08-09 20:29:29.796991,-104
2021-08-09 20:29:29.796991,-268
2021-08-09 20:29:29.796991,-114
2021-08-09 20:29:29.796991,-95
2021-08-09 20:29:29.796991,-154
2021-08-09 20:29:29.796991,-102
2021-08-09 20:29:29.796991,-71
2021-08-09 20:29:29.796991,-80
2021-08-09 20:29:29.796991,-66
2021-08-09 20:29:29.796991,-42
2021-08-09 20:29:29.796991,-38
2021-08-09 20:29:29.796991,-30
2021-08-09 20:29:29.796991,-11
2021-08-09 20:29:29.796991,0
2021-08-09 20:29:29.797988,16
2021-08-09 20:29:29.797988,35
2021-08-09 20:29:29.797988,45
